 222.83
 221.05
 219.74
 255.48
 249.23
 243.61
 238.75
 234.57
 230.92
 227.83
 225.14
 222.83
 221.05
 219.74
 255.48
 249.23
 243.61
 238.75
 234.57
 230.92
 227.83
 225.14
 222.83
 221.05
 219.74
 255.48
 249.23
 243.61
 238.75
 234.57
 230.92
 227.83
 225.14
 222.83
 221.05
 219.74
 26.90
 95.01
 156.91
 212.92
 263.53
 308.67
 348.91
 362.82
 345.23
 328.61
 313.75
 299.87
 287.39
 276.75
 267.77
 259.90
 253.01
 246.71
 241.04
 236.43
 232.29
 228.46
 225.01
 221.71
 218.64
 215.78
 213.20
 210.88
 208.99
 207.29
 205.76
 204.49
 203.34
 202.20
 201.08
 200.08
 199.17
 198.55
 198.00
 197.70
 197.53
 197.47
 248.13
 294.31
 336.18
 374.46
 409.02
 440.62
 468.85
 494.57
 518.01
 538.81
 557.93
 575.14
 590.82
 605.44
 618.50
 630.45
 640.90
 650.31
 658.88
 666.29
 673.36
 679.53
 685.47
 690.73
 694.95
 699.16
 702.64
 705.78
 708.50
 710.45
 712.31
 713.67
 714.61
 715.45
 716.10
 716.29
 716.46
 713.62
 714.05
 714.45
 715.00
 715.50
 715.75
 716.48
 716.93
 717.64
 717.77
 718.00
 718.10
 718.09
 718.18
 717.86
 717.77
 717.10
 716.89
 716.80
 716.42
 716.38
 716.44
 716.29
 716.37
 716.03
 715.93
 715.93
 715.84
 709.06
 697.25
 670.03
 627.42
 585.08
 545.77
 533.60
 550.94
 564.44
 579.60
 593.24
 606.01
 617.71
 628.14
 637.83
 646.24
 653.92
 660.83
 667.25
 673.02
 678.12
 682.91
 687.22
 691.09
 695.18
 698.47
 701.62
 704.36
 706.72
 709.15
 711.03
 713.13
 714.72
 716.65
 718.28
 719.85
 721.17
 722.25
 722.83
 723.54
 723.69
 723.92
 724.13
 724.12
 723.90
 723.91
 724.12
 724.11
 724.10
 724.49
 724.64
 724.98
 725.18
 725.46
 726.11
 726.80
 727.72
 728.85
 730.37
 731.93
 733.54
 735.48
 737.73
 739.96
 742.66
 745.40
 748.66
 752.29
 756.16
 760.55
 764.99
 769.69
 774.52
 779.67
 784.90
 790.01
 795.01
 799.41
 803.47
 807.02
 810.02
 813.02
 815.52
 817.86
 820.08
 822.17
 823.95
 825.36
 826.72
 828.15
 829.24
 830.21
 830.99
 831.69
 832.32
 833.09
 833.58
 834.02
 834.42
 834.68
 835.11
 835.40
 835.66
 835.99
 836.19
 836.17
 836.56
 836.70
 836.73
 836.86
 836.97
 837.17
 837.36
 837.62
 837.66
 837.89
 837.80
 837.72
 837.75
 838.08
 838.27
 838.24
 838.32
 838.39
 838.05
 837.94
 837.35
 836.81
 836.03
 835.13
 834.12
 833.00
 831.80
 830.52
 829.07
 827.76
 826.29
 824.66
 823.09
 821.88
 820.50
 819.15
 817.83
 816.25
 814.92
 813.53
 811.88
 810.69
 809.32
 808.19
 806.77
 805.39
 804.05
 802.55
 801.19
 799.57
 798.12
 796.90
 795.61
 794.35
 793.02
 791.72
 790.44
 789.10
 787.99
 786.69
 785.62
 784.56
 783.50
 782.45
 781.41
 780.37
 779.33
 778.40
 777.46
 776.41
 775.67
 774.80
 774.12
 773.21
 772.29
 771.56
 770.70
 769.63
 768.77
 767.99
 767.19
 766.27
 765.55
 764.59
 763.73
 762.86
 761.87
 761.09
 760.18
 759.36
 758.52
 758.17
 757.85
 757.37
 757.13
 756.72
 756.45
 756.20
 755.58
 755.42
 755.18
 754.96
 754.77
 754.59
 754.53
 754.28
 754.25
 754.23
 754.10
 753.99
 753.99
 753.99
 753.89
 753.60
 753.64
 753.38
 753.64
 753.48
 753.23
 752.91
 752.72
 752.74
 752.67
 752.50
 752.35
 752.32
 752.29
 752.26
 752.03
 751.93
 751.74
 751.66
 751.90
 751.71
 751.74
 751.66
 751.80
 751.62
 751.85
 751.87
 751.88
 751.99
 751.79
 751.72
 751.44
 751.20
 751.18
 751.06
 751.26
 751.23
 750.81
 750.83
 750.64
 750.58
 750.32
 750.09
 750.08
 749.87
 749.48
 749.14
 748.72
 748.55
 748.10
 747.89
 747.70
 747.63
 747.66
 748.00
 748.30
 748.47
 748.62
 748.76
 749.18
 750.37
 751.53
 752.78
 753.90
 754.81
 755.33
 755.69
 756.63
 757.66
 758.70
 759.83
 760.24
 760.82
 760.74
 761.46
 762.32
 763.39
 764.85
 765.96
 767.07
 767.46
 768.11
 769.10
 770.19
 771.57
 772.72
 773.74
 774.37
 775.13
 776.32
 777.09
 778.18
 779.16
 780.24
 781.02
 781.42
 781.98
 782.18
 782.36
 782.72
 782.75
 782.98
 782.68
 782.31
 781.88
 781.39
 780.95
 780.16
 779.54
 778.69
 777.82
 777.04
 776.03
 775.53
 774.78
 774.20
 773.88
 772.79
 771.91
 770.52
 769.17
 767.85
 766.47
 765.52
 764.17
 762.85
 761.47
 760.12
 759.01
 757.81
 757.43
 756.98
 757.09
 757.18
 756.96
 756.86
 755.78
 754.80
 753.72
 752.65
 751.88
 751.29
 750.86
 750.18
 749.66
 748.89
 747.90
 747.01
 716.91
 679.92
 628.43
 582.19
 540.57
 503.11
 469.00
 438.80
 413.42
 389.38
 367.74
 361.17
 350.75
 354.97
 354.18
 368.66
 385.69
 399.12
 432.41
 451.17
 479.25
 504.13
 526.82
 547.43
 565.49
 581.94
 589.95
 589.55
 595.20
 562.78
 561.20
 529.38
 503.04
 470.74
 441.06
 415.06
 391.15
 369.64
 350.27
 332.75
 320.57
 306.41
 306.17
 294.56
 300.60
 304.34
 310.51
 348.06
 359.75
 395.37
 424.44
 453.39
 479.85
 503.67
 525.50
 544.75
 562.28
 577.85
 591.76
 604.59
 615.73
 626.06
 635.35
 643.62
 651.45
 657.91
 664.22
 669.60
 674.34
 678.80
 682.12
 685.61
 657.35
 653.11
 606.40
 564.26
 527.04
 493.03
 478.33
 449.50
 423.95
 400.35
 379.22
 359.50
 342.35
 329.41
 315.77
 303.79
 316.71
 314.04
 352.64
 386.97
 419.08
 448.47
 473.92
 497.63
 518.87
 538.08
 555.67
 571.10
 585.19
 597.97
 609.58
 620.12
 629.51
 638.26
 645.93
 652.94
 659.24
 664.52
 669.57
 673.81
 677.73
 681.06
 683.85
 685.47
 669.62
 654.56
 622.50
 608.35
 588.02
 571.71
 566.34
 538.11
 534.30
 520.27
 510.64
 509.38
 510.54
 530.39
 548.45
 565.10
 580.59
 594.83
 608.35
 620.31
 631.48
 641.73
 651.16
 660.25
 668.82
 677.04
 685.13
 692.82
 700.44
 707.70
 714.83
 721.84
 728.56
 735.20
 741.78
 748.10
 754.39
 760.45
 766.41
 771.87
 777.28
 782.45
 787.31
 792.08
 796.77
 800.99
 804.79
 808.01
 811.11
 814.00
 816.30
 818.57
 820.61
 822.35
 823.82
 819.44
 815.49
 811.84
 809.06
 806.35
 803.92
 801.73
 800.85
 804.47
 807.92
 811.03
 813.93
 809.83
 806.15
 802.73
 799.66
 796.60
 794.24
 791.61
 789.15
 786.64
 783.77
 781.19
 779.98
 778.38
 776.24
 774.52
 772.56
 770.81
 768.93
 767.43
 766.39
 765.35
 764.22
 762.89
 761.81
 760.92
 759.93
 759.04
 760.74
 759.56
 758.51
 757.35
 756.02
 755.02
 753.92
 753.02
 753.52
 759.87
 766.38
 772.04
 777.14
 781.43
 784.88
 788.19
 790.88
 793.29
 795.36
 796.92
 798.33
 799.30
 800.07
 800.66
 800.99
 801.20
 801.18
 801.16
 800.94
 800.65
 800.48
 799.94
 799.44
 798.80
 798.42
 790.68
 783.51
 776.76
 770.78
 767.40
 763.76
 759.29
 755.56
 752.00
 748.20
 744.98
 742.28
 739.76
 737.88
 735.69
 734.12
 732.61
 731.25
 730.12
 729.01
 727.81
 727.53
 726.28
 725.55
 725.09
 732.98
 739.79
 745.71
 750.54
 754.68
 758.31
 761.48
 763.93
 766.04
 767.84
 769.35
 770.52
 771.27
 771.94
 772.35
 772.61
 772.85
 773.06
 773.16
 773.04
 772.74
 772.26
 771.84
 771.35
 770.82
 770.24
 769.81
 769.13
 768.72
 768.15
 767.43
 766.59
 765.73
 765.16
 764.34
 763.61
 762.85
 762.26
 761.54
 760.68
 760.01
 759.11
 758.40
 757.76
 757.08
 756.48
 755.93
 755.44
 754.59
 753.93
 753.24
 752.32
 751.88
 751.30
 750.67
 750.00
 749.20
 748.48
 747.93
 747.24
 746.61
 745.85
 745.57
 744.61
 744.25
 743.82
 743.54
 743.29
 742.66
 742.29
 741.96
 741.67
 741.30
 740.97
 740.67
 740.21
 739.89
 739.30
 738.87
 738.28
 737.55
 736.90
 736.01
 735.11
 734.50
 733.95
 733.65
 732.89
 732.30
 731.27
 730.04
 729.24
 728.71
 728.24
 728.22
 728.10
 728.09
 728.08
 728.27
 729.24
 730.52
 732.27
 733.94
 735.95
 737.45
 738.71
 740.24
 742.11
 744.80
 747.82
 750.54
 753.48
 755.74
 758.36
 761.13
 764.11
 767.10
 769.49
 771.64
 773.08
 774.57
 775.81
 776.93
 778.14
 778.72
 779.45
 779.21
 779.09
 778.58
 777.72
 776.85
 775.26
 773.64
 771.37
 769.34
 767.40
 764.66
 762.30
 759.57
 757.01
 742.11
 725.20
 703.98
 684.88
 683.09
 662.88
 668.89
 646.60
 599.84
 557.66
 519.79
 487.61
 456.75
 446.68
 467.31
 493.08
 515.97
 536.57
 555.42
 572.07
 587.17
 601.05
 613.15
 624.13
 633.92
 642.63
 650.46
 657.62
 664.56
 669.60
 674.94
 679.65
 683.88
 687.89
 691.10
 694.29
 696.46
 698.92
 701.13
 703.01
 705.11
 706.50
 708.05
 709.35
 710.61
 711.55
 712.29
 713.27
 713.64
 714.17
 714.66
 714.89
 714.30
 712.47
 712.42
 685.98
 676.68
 645.72
 624.94
 607.55
 584.79
 596.02
 594.81
 606.83
 617.85
 627.16
 635.95
 642.85
 649.47
 655.02
 659.82
 664.54
 668.48
 672.23
 674.61
 677.45
 679.91
 681.91
 683.82
 675.84
 674.46
 665.41
 632.97
 604.77
 564.50
 543.45
 527.70
 540.93
 557.04
 568.13
 581.52
 592.47
 603.22
 612.80
 620.72
 628.85
 635.56
 642.01
 647.91
 652.92
 657.82
 661.74
 665.47
 668.32
 660.39
 635.85
 592.56
 553.21
 517.79
 486.01
 457.21
 430.69
 407.32
 386.39
 367.75
 351.17
 335.96
 322.46
 310.21
 300.39
 289.35
 305.92
 322.53
 359.47
 392.93
 423.23
 450.61
 475.25
 497.72
 518.15
 519.44
 537.09
 533.18
 501.67
 472.20
 444.68
 420.11
 397.80
 377.82
 359.84
 343.65
 328.39
 315.55
 303.59
 299.44
 289.59
 324.83
 321.55
 341.79
 376.91
 408.92
 438.63
 465.07
 489.06
 510.76
 530.48
 548.23
 564.01
 578.51
 591.46
 602.61
 613.25
 622.52
 631.07
 638.47
 645.32
 651.79
 657.31
 662.58
 666.92
 670.83
 674.54
 677.79
 680.81
 683.43
 685.59
 687.93
 689.54
 691.38
 692.84
 694.36
 696.12
 697.51
 699.26
 701.03
 702.93
 704.74
 706.36
 708.53
 710.37
 712.14
 713.82
 715.34
 717.01
 718.41
 719.97
 721.37
 722.83
 724.45
 725.90
 727.51
 729.36
 731.23
 733.50
 735.65
 737.89
 740.10
 742.29
 744.66
 746.99
 749.49
 752.25
 754.92
 757.93
 760.94
 764.04
 767.24
 770.61
 773.95
 777.26
 780.73
 784.06
 787.25
 790.43
 793.48
 796.54
 799.78
 803.00
 806.30
 809.37
 812.24
 814.91
 817.22
 819.50
 821.35
 822.91
 824.52
 825.87
 826.98
 828.09
 829.08
 823.57
 818.81
 814.53
 810.08
 806.67
 779.20
 778.58
 777.82
 776.84
 776.26
 775.43
 773.89
 773.00
 771.50
 770.25
 768.92
 768.03
 767.43
 768.29
 767.46
 766.41
 765.17
 765.05
 763.55
 762.49
 761.04
 759.94
 759.05
 758.64
 757.68
 756.61
 755.55
 754.79
 753.71
 752.14
 751.03
 750.23
 749.30
 748.27
 747.55
 746.29
 745.26
 745.44
 742.49
 741.74
 740.27
 739.64
 739.08
 737.97
 737.37
 737.04
 736.63
 736.27
 736.84
 736.26
 735.43
 734.89
 733.90
 733.51
 732.76
 732.08
 731.57
 730.32
 729.49
 729.14
 728.72
 728.55
 728.20
 727.08
 726.57
 726.01
 725.71
 724.54
 725.29
 724.96
 724.26
 725.63
 723.57
 723.51
 723.56
 723.11
 723.30
 722.97
 722.97
 723.07
 722.47
 722.62
 722.56
 722.10
 730.19
 737.37
 743.63
 748.87
 753.58
 757.33
 760.69
 763.32
 765.39
 767.15
 768.44
 769.69
 770.52
 770.97
 771.37
 771.64
 771.97
 772.08
 771.87
 771.68
 771.21
 770.89
 770.50
 770.05
 769.55
 769.09
 768.28
 767.65
 767.29
 766.96
 766.36
 765.73
 765.16
 764.44
 763.70
 763.13
 762.41
 761.67
 760.80
 760.02
 759.22
 758.40
 757.56
 756.90
 756.41
 755.57
 755.01
 754.21
 753.59
 753.23
 752.41
 751.77
 751.09
 750.48
 749.93
 749.24
 748.62
 747.65
 746.89
 746.30
 745.47
 745.22
 744.90
 744.71
 744.54
 743.79
 743.21
 742.69
 742.32
 742.39
 742.75
 743.27
 743.85
 744.26
 744.23
 744.21
 745.09
 746.18
 748.06
 749.56
 751.00
 752.30
 752.57
 752.71
 752.94
 753.95
 755.15
 756.64
 758.47
 759.93
 761.43
 762.49
 763.54
 764.69
 765.72
 767.05
 767.84
 768.66
 769.09
 768.78
 768.80
 768.52
 768.47
 768.62
 767.76
 766.89
 765.40
 764.36
 763.42
 762.48
 761.43
 759.99
 758.39
 756.95
 754.96
 753.06
 750.95
 749.36
 747.82
 745.84
 744.36
 742.62
 741.46
 740.51
 739.66
 739.40
 738.56
 738.00
 737.30
 736.87
 736.58
 735.32
 734.99
 734.09
 733.38
 732.55
 731.59
 731.13
 730.22
 730.00
 729.10
 728.39
 728.25
 727.32
 726.59
 726.13
 725.82
 725.64
 724.87
 724.49
 722.04
 721.73
 713.46
 712.41
 713.17
 709.26
 710.03
 709.83
 710.44
 711.20
 711.48
 712.33
 712.50
 712.95
 713.45
 713.61
 714.05
 714.24
 714.32
 714.49
 714.44
 714.59
 714.23
 714.11
 714.00
 713.60
 713.54
 712.99
 712.89
 711.50
 711.25
 711.02
 709.82
 709.34
 708.71
 708.33
 707.90
 707.41
 707.37
 701.83
 701.55
 701.49
 700.85
 700.86
 699.47
 699.43
 699.38
 699.05
 698.54
 697.39
 696.85
 696.06
 694.96
 694.36
 693.23
 692.50
 691.05
 689.45
 688.70
 684.63
 684.07
 681.46
 679.42
 679.27
 678.35
 678.41
 678.27
 678.04
 678.14
 674.93
 673.83
 658.85
 639.36
 630.03
 597.93
 578.63
 546.47
 513.92
 492.63
 465.37
 466.03
 478.13
 487.31
 506.18
 522.96
 538.07
 551.96
 563.87
 575.08
 584.97
 579.17
 588.66
 578.89
 579.70
 575.43
 568.59
 577.93
 587.04
 592.73
 600.26
 607.33
 613.60
 619.34
 624.31
 628.88
 632.99
 636.79
 640.51
 644.06
 647.45
 650.61
 653.15
 655.73
 657.76
 659.38
 661.24
 662.82
 664.24
 665.41
 666.77
 668.30
 669.47
 670.62
 671.96
 672.86
 673.88
 674.89
 675.50
 676.15
 676.63
 677.17
 677.95
 678.16
 678.34
 678.61
 678.95
 678.95
 679.06
 678.95
 679.06
 678.85
 678.77
 678.69
 678.42
 678.68
 678.61
 679.25
 679.92
 681.03
 682.53
 683.88
 685.19
 686.87
 688.58
 690.42
 692.88
 695.49
 698.44
 701.50
 704.35
 707.11
 710.00
 712.70
 715.73
 718.56
 721.50
 724.65
 727.69
 731.02
 734.32
 737.49
 740.94
 744.14
 747.53
 750.98
 754.38
 757.94
 761.35
 764.71
 768.34
 771.81
 775.43
 779.18
 782.56
 786.21
 789.69
 793.22
 796.70
 800.03
 803.32
 806.39
 809.65
 812.59
 815.23
 817.71
 819.74
 821.76
 815.39
 754.95
 757.35
 758.92
 760.43
 762.18
 764.76
 765.79
 768.01
 760.91
 762.42
 763.38
 757.04
 758.43
 715.89
 720.40
 723.06
 683.76
 691.28
 686.55
 701.70
 715.03
 726.72
 737.15
 746.24
 754.21
 761.09
 767.28
 772.45
 776.71
 780.44
 783.39
 786.15
 788.64
 790.48
 776.23
 745.40
 743.96
 750.77
 756.19
 760.87
 764.88
 768.40
 771.36
 773.62
 775.66
 777.49
 778.84
 779.76
 780.58
 781.02
 781.42
 781.78
 781.90
 782.01
 781.91
 781.82
 781.64
 781.47
 781.33
 781.09
 780.68
 780.32
 779.78
 779.31
 779.08
 778.47
 778.02
 777.52
 776.87
 776.48
 775.73
 775.06
 774.45
 773.71
 773.14
 772.52
 771.87
 771.28
 770.66
 769.79
 769.11
 768.20
 767.68
 766.81
 765.93
 765.14
 764.02
 763.22
 762.40
 761.46
 760.41
 759.37
 758.53
 757.68
 756.71
 756.04
 755.34
 754.50
 753.85
 753.37
 752.63
 752.17
 751.35
 750.52
 749.96
 749.47
 748.92
 748.43
 747.79
 747.51
 746.86
 746.47
 746.22
 745.50
 745.25
 744.93
 744.63
 744.47
 744.12
 744.01
 743.91
 743.52
 743.37
 743.03
 742.73
 742.55
 742.40
 742.26
 742.03
 741.63
 741.17
 740.85
 740.17
 739.55
 739.19
 738.97
 738.78
 738.50
 738.65
 739.08
 739.78
 740.60
 741.14
 741.72
 742.45
 743.51
 745.26
 747.13
 749.42
 751.88
 753.69
 755.42
 757.18
 759.06
 761.55
 763.70
 765.63
 767.47
 768.52
 769.17
 769.75
 770.48
 771.63
 772.26
 772.94
 773.14
 773.53
 774.28
 774.85
 775.26
 775.74
 775.36
 775.13
 774.41
 774.07
 773.27
 771.64
 770.58
 769.12
 767.71
 766.34
 764.80
 763.72
 762.55
 761.09
 760.19
 758.97
 758.17
 757.75
 757.48
 757.93
 758.54
 760.28
 762.65
 765.09
 768.58
 772.12
 775.91
 780.62
 785.56
 790.80
 795.52
 799.37
 800.83
 799.85
 798.06
 795.66
 792.29
 789.16
 784.85
 781.26
 778.24
 774.61
 771.95
 769.36
 766.52
 764.67
 759.30
 757.37
 756.33
 755.20
 754.78
 753.90
 753.11
 752.50
 751.25
 750.23
 749.00
 746.40
 745.46
 717.52
 702.26
 699.84
 647.55
 646.60
 613.44
 591.69
 605.43
 576.18
 590.76
 597.69
 573.12
 586.11
 567.50
 542.05
 544.24
 507.82
 503.14
 504.12
 475.61
 500.25
 483.22
 487.40
 511.26
 505.44
 527.29
 539.86
 529.98
 548.58
 523.02
 525.22
 545.20
 561.38
 577.94
 592.75
 605.97
 618.47
 629.33
 639.09
 648.38
 656.05
 663.34
 669.61
 675.25
 680.82
 685.44
 689.70
 693.63
 696.66
 699.90
 702.51
 704.76
 707.18
 709.06
 711.06
 713.15
 715.14
 717.32
 719.29
 721.56
 724.10
 726.29
 729.06
 731.66
 733.39
 735.45
 736.51
 737.86
 739.07
 739.76
 740.99
 741.89
 742.50
 743.55
 743.99
 744.60
 744.74
 744.16
 744.05
 743.14
 742.83
 742.64
 742.18
 741.96
 741.47
 740.72
 740.25
 739.52
 738.77
 737.69
 736.32
 735.29
 733.76
 732.59
 731.43
 730.08
 728.88
 727.09
 725.48
 723.93
 722.04
 720.13
 718.12
 715.91
 714.02
 711.32
 708.08
 706.78
 697.50
 696.75
 690.07
 679.47
 669.02
 640.62
 624.26
 621.63
 621.87
 628.08
 634.57
 639.82
 645.13
 650.12
 654.71
 659.24
 663.11
 666.80
 670.72
 674.15
 677.93
 681.54
 684.89
 688.40
 691.96
 695.56
 699.41
 703.47
 707.62
 711.96
 716.36
 720.83
 725.54
 730.39
 735.65
 740.98
 746.79
 752.51
 757.86
 763.67
 769.30
 774.97
 780.58
 786.12
 791.21
 795.89
 800.30
 804.27
 807.64
 810.58
 813.42
 815.88
 818.09
 820.08
 816.47
 812.83
 809.94
 807.45
 777.60
 778.54
 730.69
 721.12
 727.41
 675.17
 685.45
 694.81
 688.52
 698.87
 706.49
 707.04
 713.63
 703.97
 710.37
 716.24
 708.71
 714.34
 719.61
 719.15
 723.43
 700.99
 706.49
 711.74
 690.77
 697.39
 679.05
 675.55
 683.29
 631.86
 643.38
 653.04
 631.93
 643.14
 619.73
 622.15
 635.54
 621.58
 633.53
 644.37
 632.44
 642.99
 597.59
 593.43
 607.89
 563.50
 580.55
 562.50
 554.15
 572.33
 583.30
 597.77
 610.89
 580.10
 595.99
 598.59
 589.73
 603.96
 570.46
 585.72
 600.25
 564.42
 580.78
 576.70
 575.33
 590.90
 572.91
 588.42
 602.48
 576.23
 591.51
 580.15
 573.74
 589.37
 579.23
 594.11
 607.50
 591.35
 604.81
 607.43
 599.39
 613.15
 608.23
 620.11
 631.40
 629.96
 640.16
 649.25
 652.82
 660.54
 666.29
 672.36
 677.92
 664.53
 675.98
 685.78
 693.80
 700.32
 705.49
 709.74
 713.27
 716.04
 718.24
 719.91
 721.22
 722.20
 723.28
 723.85
 724.37
 724.63
 724.67
 724.90
 724.81
 724.73
 724.76
 724.68
 724.61
 724.55
 724.70
 724.83
 724.84
 724.56
 724.60
 724.54
 724.49
 724.64
 724.48
 724.43
 724.39
 724.15
 724.13
 724.02
 724.02
 724.12
 724.20
 724.48
 724.44
 724.49
 725.14
 725.13
 725.42
 725.77
 726.10
 726.69
 727.72
 728.65
 730.08
 730.87
 731.59
 732.53
 733.77
 735.70
 738.03
 740.32
 742.19
 743.47
 744.83
 746.74
 748.87
 751.68
 754.51
 757.06
 759.06
 759.95
 760.96
 762.76
 764.68
 766.72
 768.14
 769.13
 770.32
 771.08
 772.08
 773.07
 773.66
 774.60
 775.64
 776.67
 777.71
 778.13
 778.62
 779.16
 779.54
 779.89
 779.70
 779.53
 778.88
 777.99
 777.39
 777.05
 776.35
 776.11
 775.40
 774.46
 773.61
 772.25
 771.53
 770.77
 769.70
 768.73
 767.45
 766.01
 764.81
 763.53
 762.47
 761.23
 759.90
 759.11
 758.00
 756.80
 755.72
 754.35
 753.01
 751.41
 749.67
 748.20
 746.38
 744.55
 743.19
 731.17
 725.35
 702.42
 651.78
 612.20
 568.88
 529.89
 499.60
 467.74
 440.67
 415.20
 391.78
 374.80
 355.52
 338.27
 324.54
 310.19
 297.57
 286.31
 276.38
 267.34
 259.21
 251.89
 245.50
 239.65
 233.58
 229.43
 224.68
 225.52
 221.76
 218.79
 216.81
 214.43
 217.98
 215.89
 213.80
 222.02
 219.42
 220.67
 228.31
 225.18
 225.36
 222.52
 219.87
 218.28
 216.36
 214.72
 236.25
 248.52
 293.37
 333.23
 370.11
 403.10
 432.79
 459.21
 483.39
 504.95
 524.76
 504.28
 474.05
 452.85
 427.56
 407.41
 387.87
 369.18
 377.56
 374.70
 389.83
 419.95
 443.56
 468.20
 490.48
 501.43
 520.09
 525.88
 540.29
 555.16
 568.15
 580.03
 590.83
 600.55
 609.49
 617.94
 625.45
 632.60
 638.24
 643.42
 648.08
 652.07
 656.16
 659.75
 662.67
 665.70
 668.03
 670.43
 672.79
 674.71
 676.74
 677.96
 678.57
 679.11
 679.30
 679.67
 679.90
 679.91
 680.22
 680.30
 680.27
 679.94
 679.75
 679.17
 679.46
 679.81
 680.43
 681.49
 682.44
 683.99
 685.59
 687.33
 689.70
 692.23
 695.41
 698.97
 702.97
 707.87
 712.89
 718.40
 724.46
 730.61
 737.15
 743.84
 750.65
 757.39
 764.15
 770.93
 777.54
 777.19
 777.77
 777.79
 779.51
 780.16
 780.94
 781.95
 782.95
 783.76
 784.58
 785.72
 786.35
 786.62
 786.66
 786.69
 786.62
 786.46
 785.81
 784.93
 784.24
 783.71
 782.64
 781.68
 780.51
 778.96
 777.86
 777.58
 776.42
 775.18
 773.66
 773.39
 771.85
 770.77
 768.99
 767.09
 765.48
 763.34
 761.80
 760.62
 759.06
 757.65
 755.79
 754.21
 754.59
 752.03
 750.83
 743.04
 731.34
 731.11
 685.89
 662.11
 622.99
 576.80
 563.92
 524.82
 497.54
 489.29
 457.46
 442.01
 424.21
 398.09
 384.98
 363.18
 342.96
 325.67
 309.10
 293.89
 280.90
 268.31
 257.38
 247.64
 237.68
 229.41
 221.17
 213.65
 206.99
 200.49
 194.54
 189.09
 183.88
 179.29
 175.06
 171.05
 167.55
 164.39
 161.45
 158.81
 156.23
 154.01
 152.00
 150.10
 148.39
 146.95
 145.76
 144.98
 144.48
 144.74
 144.76
 145.29
 151.06
 188.55
 244.90
 295.61
 341.45
 383.10
 420.89
 455.40
 487.96
 517.97
 545.67
 506.90
 531.71
 552.24
 570.92
 587.33
 602.19
 615.27
 627.15
 637.33
 646.50
 655.05
 662.24
 668.62
 674.26
 679.13
 683.42
 687.98
 691.18
 695.56
 698.00
 701.50
 703.65
 705.49
 707.14
 709.43
 710.18
 712.76
 712.79
 713.91
 713.62
 713.16
 712.64
 712.18
 711.66
 712.59
 714.83
 715.85
 716.47
 716.62
 716.36
 716.02
 715.72
 715.55
 715.59
 715.53
 715.58
 715.92
 716.43
 717.19
 717.57
 717.91
 718.22
 718.60
 718.64
 718.67
 718.61
 718.85
 718.86
 718.48
 718.43
 718.09
 718.18
 717.96
 717.76
 717.79
 718.01
 718.41
 718.87
 719.08
 719.17
 719.25
 719.13
 719.32
 719.18
 718.97
 718.47
 717.52
 716.97
 716.57
 716.42
 716.57
 716.72
 716.75
 716.97
 717.67
 719.31
 721.58
 724.32
 726.89
 728.80
 730.32
 731.99
 733.39
 735.55
 737.59
 739.63
 741.57
 743.41
 745.17
 747.56
 750.40
 754.26
 757.53
 759.88
 762.09
 764.38
 767.04
 769.94
 772.95
 775.65
 777.39
 778.25
 779.92
 781.93
 783.44
 785.09
 785.28
 784.86
 783.27
 782.34
 781.71
 780.94
 779.64
 777.88
 776.19
 774.57
 772.52
 770.76
 769.89
 768.70
 767.13
 766.52
 765.66
 764.80
 763.72
 761.55
 726.89
 670.40
 619.56
 573.91
 532.82
 496.03
 462.73
 432.16
 405.44
 380.30
 358.67
 338.70
 321.23
 305.71
 292.14
 280.32
 271.49
 316.64
 357.98
 395.68
 430.61
 463.85
 495.27
 523.84
 549.56
 571.80
 591.12
 608.21
 623.99
 637.99
 649.89
 659.70
 668.33
 675.10
 680.89
 686.00
 690.30
 693.87
 641.48
 595.03
 553.13
 515.62
 481.46
 451.41
 424.57
 400.61
 378.95
 359.56
 342.90
 328.01
 314.61
 302.75
 292.07
 282.67
 274.20
 266.48
 269.03
 262.33
 256.30
 251.07
 270.36
 313.42
 352.28
 387.45
 419.01
 447.31
 472.88
 495.59
 516.03
 534.73
 551.05
 565.55
 565.79
 543.91
 510.92
 479.73
 451.46
 426.11
 403.10
 382.39
 363.65
 346.99
 331.99
 318.49
 306.54
 295.79
 286.31
 277.78
 270.20
 263.28
 256.75
 251.18
 245.66
 241.39
 236.55
 233.30
 236.17
 234.05
 237.45
 246.10
 263.09
 294.18
 330.36
 367.83
 401.84
 432.46
 460.31
 485.78
 508.80
 530.22
 549.70
 567.73
 584.46
 600.21
 615.19
 629.57
 643.01
 656.11
 668.30
 679.77
 690.89
 701.41
 711.26
 720.74
 729.86
 738.48
 739.33
 713.30
 673.97
 620.97
 573.17
 530.46
 491.41
 468.97
 437.47
 449.73
 482.45
 511.61
 538.05
 561.94
 582.75
 601.67
 618.81
 628.93
 642.83
 621.55
 632.49
 598.84
 611.96
 627.26
 641.84
 653.65
 665.59
 675.03
 683.43
 690.88
 697.20
 703.38
 708.74
 713.66
 718.00
 721.80
 725.12
 727.71
 729.54
 731.58
 732.92
 733.83
 734.95
 735.25
 735.33
 735.70
 735.63
 734.76
 734.59
 735.43
 735.29
 693.16
 696.84
 652.56
 605.00
 617.40
 576.56
 564.80
 544.82
 506.74
 473.17
 442.85
 415.47
 446.32
 420.69
 439.82
 468.64
 494.07
 516.77
 537.49
 553.84
 570.36
 585.32
 598.39
 610.65
 590.78
 597.91
 556.22
 518.79
 485.01
 453.61
 424.55
 399.10
 375.29
 354.66
 337.09
 323.18
 363.06
 398.76
 430.78
 459.80
 485.62
 509.06
 496.76
 463.98
 439.58
 413.72
 390.45
 409.31
 406.18
 436.96
 465.26
 490.34
 513.40
 533.86
 552.08
 568.87
 584.08
 597.37
 610.64
 620.87
 631.19
 585.67
 543.60
 506.34
 472.41
 441.77
 414.89
 390.10
 368.39
 348.45
 330.01
 313.91
 298.91
 285.52
 273.87
 262.68
 253.72
 245.54
 237.89
 232.30
 226.37
 224.73
 220.46
 217.01
 244.01
 245.01
 283.01
 327.91
 342.92
 377.93
 411.53
 441.38
 468.24
 492.42
 513.88
 533.89
 551.60
 567.54
 581.99
 594.19
 605.67
 615.90
 632.01
 645.71
 657.44
 667.40
 675.66
 682.49
 688.34
 693.01
 696.81
 700.03
 702.42
 704.78
 706.40
 707.56
 708.51
 709.26
 710.03
 710.83
 712.04
 713.44
 714.90
 715.91
 717.12
 718.30
 719.67
 721.21
 722.69
 724.52
 725.87
 726.58
 727.72
 729.25
 731.52
 734.07
 736.86
 739.78
 742.90
 746.01
 748.91
 751.52
 754.37
 757.53
 760.78
 763.60
 765.94
 767.25
 768.32
 769.29
 770.56
 771.50
 772.35
 772.82
 772.84
 772.55
 772.60
 772.54
 772.58
 772.43
 772.38
 771.84
 770.96
 769.86
 768.88
 767.69
 767.12
 766.81
 766.03
 765.13
 763.91
 762.52
 761.27
 759.64
 758.18
 756.26
 754.73
 753.26
 751.63
 749.67
 747.40
 726.06
 725.76
 702.88
 650.59
 603.43
 560.79
 521.81
 487.53
 456.68
 428.91
 403.72
 381.25
 360.92
 342.63
 326.67
 311.90
 298.31
 286.78
 275.30
 266.07
 257.26
 278.54
 322.68
 362.72
 398.84
 431.86
 461.67
 488.61
 513.35
 535.41
 555.77
 573.89
 590.20
 604.68
 617.71
 629.24
 639.62
 648.66
 656.69
 664.12
 670.31
 676.08
 680.67
 684.70
 688.03
 636.73
 605.76
 606.68
 617.31
 626.78
 635.50
 614.85
 571.77
 532.09
 496.38
 465.04
 437.84
 436.56
 422.50
 412.65
 441.78
 469.21
 493.89
 516.20
 536.38
 554.14
 570.13
 584.71
 598.64
 611.38
 623.04
 633.94
 643.44
 653.00
 661.80
 670.12
 677.61
 684.05
 689.84
 694.96
 697.86
 700.88
 689.49
 638.94
 644.35
 631.51
 588.36
 549.42
 514.68
 483.71
 456.54
 432.69
 441.92
 466.13
 488.81
 509.43
 527.99
 544.69
 558.82
 571.44
 583.00
 590.60
 596.54
 577.38
 556.44
 531.60
 509.44
 498.00
 502.60
 519.84
 536.05
 550.95
 564.45
 576.91
 588.52
 599.17
 609.15
 618.23
 626.51
 633.46
 588.81
 599.13
 568.02
 527.82
 545.54
 506.98
 474.88
 502.10
 466.29
 482.86
 450.27
 419.04
 452.74
 424.57
 457.81
 488.93
 494.64
 521.37
 545.43
 547.19
 569.87
 589.68
 609.32
 625.88
 638.30
 650.07
 660.86
 650.77
 661.20
 619.88
 631.69
 643.52
 597.17
 611.65
 625.39
 624.75
 638.17
 593.76
 606.78
 620.40
 613.86
 626.08
 636.67
 617.90
 629.11
 582.90
 540.61
 503.75
 467.17
 435.26
 406.13
 379.42
 358.98
 338.28
 321.55
 358.20
 337.28
 364.85
 344.86
 324.98
 351.28
 331.15
 314.34
 352.40
 332.76
 372.09
 406.38
 436.54
 464.99
 436.59
 463.53
 488.68
 518.21
 544.19
 567.07
 587.16
 604.85
 620.06
 633.35
 644.92
 654.63
 662.76
 669.49
 675.04
 679.94
 683.74
 687.07
 689.96
 692.26
 694.34
 696.10
 697.69
 698.62
 699.26
 700.14
 701.12
 702.11
 703.10
 703.69
 704.42
 704.98
 705.18
 705.26
 705.24
 705.31
 706.08
 706.57
 707.22
 708.19
 708.37
 708.84
 709.25
 709.23
 709.41
 709.06
 708.86
 708.87
 708.89
 709.30
 709.57
 709.51
 709.76
 709.78
 709.80
 709.92
 709.53
 709.38
 709.34
 709.31
 709.38
 709.44
 709.39
 709.36
 709.52
 709.97
 710.37
 710.63
 711.17
 711.35
 711.52
 711.67
 711.60
 711.74
 711.57
 711.51
 711.26
 710.83
 710.55
 710.09
 709.78
 709.51
 709.56
 709.20
 709.08
 708.97
 708.87
 708.99
 708.79
 708.81
 708.43
 707.79
 707.41
 706.97
 706.57
 706.41
 706.07
 705.86
 705.78
 705.70
 705.73
 705.66
 705.99
 706.19
 706.27
 706.65
 706.98
 707.68
 708.31
 708.98
 709.68
 710.42
 710.87
 711.79
 712.41
 712.87
 713.48
 713.83
 714.35
 714.61
 714.95
 715.26
 715.53
 715.68
 716.01
 716.41
 716.87
 717.38
 717.54
 717.99
 718.49
 719.14
 719.63
 719.86
 720.38
 720.64
 720.78
 721.00
 721.60
 722.24
 722.71
 723.24
 724.32
 725.79
 727.71
 730.04
 732.63
 734.57
 736.01
 737.81
 740.03
 742.33
 744.29
 745.67
 746.30
 746.67
 747.20
 747.98
 748.78
 750.41
 752.56
 754.61
 756.15
 758.13
 759.92
 762.43
 764.68
 767.82
 770.53
 772.58
 773.52
 773.87
 774.38
 775.25
 775.82
 776.84
 777.55
 778.40
 778.96
 779.16
 778.55
 777.59
 776.43
 775.09
 773.48
 771.43
 769.59
 767.83
 765.95
 764.15
 761.64
 759.07
 757.57
 755.71
 754.54
 752.88
 751.60
 750.54
 749.18
 747.36
 746.13
 744.82
 743.73
 742.36
 741.02
 740.12
 738.91
 737.82
 736.94
 725.54
 725.59
 723.73
 710.66
 711.99
 698.29
 699.86
 701.48
 703.73
 705.86
 707.67
 709.20
 710.68
 711.71
 712.64
 713.28
 713.85
 714.67
 715.40
 715.86
 716.47
 716.73
 717.15
 717.34
 717.20
 717.28
 717.16
 700.24
 685.12
 635.60
 590.64
 550.78
 514.10
 481.29
 451.76
 424.99
 401.59
 379.83
 360.15
 342.83
 326.55
 312.49
 299.04
 287.64
 277.58
 268.72
 260.65
 267.28
 269.35
 290.42
 321.28
 358.65
 394.08
 425.88
 454.89
 481.00
 504.70
 526.13
 545.42
 562.77
 578.50
 592.35
 604.81
 615.43
 624.49
 633.04
 640.24
 646.51
 652.36
 657.52
 662.27
 666.34
 669.61
 672.25
 674.42
 676.38
 677.94
 679.15
 680.33
 681.50
 682.45
 683.31
 684.18
 685.46
 686.21
 686.79
 687.51
 688.46
 689.71
 690.74
 692.27
 694.04
 695.94
 698.14
 700.93
 703.74
 706.66
 709.80
 713.12
 716.81
 720.42
 724.58
 728.92
 733.43
 738.19
 736.67
 682.90
 689.31
 637.88
 647.79
 658.11
 606.60
 621.04
 584.44
 540.49
 562.24
 519.82
 491.04
 483.83
 449.15
 478.74
 445.06
 414.26
 448.13
 417.42
 450.78
 481.50
 508.25
 533.62
 555.86
 573.77
 591.30
 547.67
 563.80
 581.02
 537.32
 557.19
 526.77
 491.29
 516.46
 480.32
 504.78
 527.81
 489.93
 514.63
 483.17
 451.45
 480.41
 447.87
 475.28
 500.25
 465.63
 492.26
 478.24
 455.01
 482.61
 507.45
 528.41
 547.97
 511.07
 532.06
 536.16
 514.94
 535.55
 499.49
 521.34
 541.01
 504.61
 525.85
 496.86
 476.38
 500.54
 469.38
 492.85
 514.76
 479.59
 503.23
 471.90
 443.11
 469.30
 438.67
 467.40
 492.06
 458.46
 484.71
 456.54
 428.79
 458.11
 428.50
 456.95
 483.25
 450.83
 477.64
 451.78
 424.80
 454.62
 425.26
 453.33
 479.80
 447.52
 474.87
 446.08
 419.67
 449.81
 421.53
 450.07
 477.07
 445.26
 471.73
 443.06
 419.05
 449.15
 420.43
 449.19
 475.67
 443.60
 470.64
 441.78
 416.10
 446.49
 418.24
 447.02
 473.82
 442.13
 469.42
 440.98
 415.58
 446.02
 417.72
 446.95
 474.15
 442.64
 470.17
 443.26
 416.93
 448.84
 419.45
 457.41
 491.07
 521.26
 548.14
 572.02
 593.22
 612.20
 628.98
 644.28
 658.35
 671.32
 677.89
 671.00
 656.60
 672.24
 685.81
 698.43
 710.39
 720.75
 733.67
 673.81
 623.23
 576.10
 532.59
 494.33
 463.80
 431.22
 402.40
 375.86
 363.47
 341.03
 320.62
 302.36
 302.52
 285.87
 271.78
 258.31
 284.38
 269.64
 265.27
 252.45
 244.50
 233.75
 224.18
 216.16
 208.24
 201.02
 225.42
 290.68
 346.11
 400.00
 448.20
 491.68
 531.11
 566.50
 598.05
 626.44
 652.00
 674.80
 695.42
 713.98
 730.68
 745.71
 759.14
 771.53
 782.47
 792.43
 801.18
 809.37
 816.43
 822.89
 828.60
 833.84
 838.55
 842.60
 846.54
 849.98
 853.09
 855.98
 858.28
 856.25
 854.43
 852.68
 851.12
 849.80
 848.72
 847.65
 846.69
 845.92
 845.13
 844.41
 843.67
 843.00
 842.50
 842.15
 841.74
 841.36
 841.03
 840.73
 840.55
 840.40
 840.16
 840.14
 839.93
 839.73
 839.56
 839.71
 839.53
 839.28
 839.05
 839.05
 838.84
 838.56
 837.50
 836.15
 834.04
 832.13
 829.82
 827.24
 824.61
 821.85
 818.97
 816.47
 813.62
 810.46
 807.12
 804.20
 801.18
 798.46
 795.72
 792.95
 790.15
 787.64
 785.17
 782.86
 780.57
 778.51
 776.56
 774.51
 772.76
 771.08
 769.57
 768.31
 767.28
 766.55
 765.90
 765.61
 765.45
 765.70
 765.93
 765.74
 765.77
 765.49
 765.54
 765.59
 766.23
 766.40
 766.76
 766.99
 767.09
 767.08
 766.87
 766.38
 766.05
 765.44
 764.50
 763.35
 762.41
 761.07
 759.76
 758.59
 757.53
 756.48
 755.63
 754.47
 753.52
 752.47
 751.72
 750.75
 749.57
 747.82
 746.23
 744.91
 742.92
 740.53
 737.38
 732.24
 678.81
 630.33
 586.40
 546.86
 511.07
 478.77
 449.79
 423.71
 400.44
 379.50
 360.75
 343.97
 329.07
 316.17
 304.65
 294.49
 285.64
 277.97
 271.38
 265.64
 302.07
 339.67
 373.90
 404.91
 433.02
 458.62
 481.76
 501.98
 519.78
 534.90
 548.41
 560.07
 526.56
 540.31
 553.78
 566.20
 579.78
 593.00
 602.80
 612.42
 619.78
 624.10
 629.59
 606.53
 615.68
 624.01
 628.91
 634.82
 641.64
 645.57
 651.62
 655.85
 661.47
 666.42
 669.58
 675.32
 680.89
 688.00
 694.90
 702.31
 709.48
 715.33
 719.70
 723.23
 721.61
 662.75
 609.87
 562.28
 522.56
 543.00
 562.20
 581.58
 600.82
 618.24
 633.72
 647.14
 659.33
 669.50
 672.95
 674.05
 626.85
 582.26
 542.84
 505.75
 471.38
 440.44
 411.10
 383.49
 358.44
 335.89
 315.60
 297.34
 280.71
 265.84
 252.55
 240.50
 229.85
 220.26
 211.54
 203.68
 196.62
 190.35
 184.72
 179.55
 174.79
 170.61
 237.55
 227.10
 217.69
 209.22
 201.60
 194.64
 188.47
 183.03
 178.02
 173.52
 169.47
 165.92
 162.53
 159.58
 220.22
 275.40
 325.06
 371.35
 412.32
 449.08
 481.68
 509.51
 532.86
 555.37
 576.53
 596.38
 612.04
 569.64
 582.67
 547.71
 562.14
 522.82
 485.34
 455.51
 482.56
 509.90
 536.91
 562.52
 585.07
 605.06
 622.95
 638.76
 649.48
 657.83
 665.35
 671.62
 678.45
 684.91
 694.82
 703.54
 711.58
 716.12
 720.51
 723.36
 725.82
 726.84
 727.86
 735.47
 743.12
 749.71
 756.14
 761.43
 765.48
 769.04
 772.23
 775.21
 778.19
 780.27
 781.84
 782.96
 783.66
 784.40
 785.16
 785.04
 784.84
 784.25
 783.83
 783.64
 783.38
 783.44
 783.50
 782.95
 781.55
 779.30
 776.67
 773.50
 769.65
 766.19
 762.67
 759.50
 757.65
 756.59
 757.13
 758.81
 761.33
 765.30
 769.57
 773.71
 777.44
 778.90
 779.41
 778.27
 775.34
 771.91
 767.42
 762.97
 759.38
 755.14
 752.52
 750.37
 748.14
 747.12
 745.31
 743.48
 742.03
 739.23
 736.80
 734.22
 731.20
 729.48
 727.33
 725.40
 724.26
 721.83
 720.05
 718.05
 715.44
 713.70
 711.13
 708.61
 707.45
 705.41
 703.97
 702.17
 700.15
 698.74
 696.66
 650.00
 653.00
 611.70
 617.83
 623.25
 627.12
 631.61
 635.95
 640.55
 646.00
 652.40
 662.06
 676.75
 692.98
 707.68
 720.61
 732.25
 743.03
 752.52
 761.07
 768.76
 775.59
 781.83
 787.45
 792.40
 796.96
 800.96
 804.87
 808.18
 811.06
 813.76
 816.28
 816.25
 814.03
 808.63
 801.36
 792.33
 732.09
 677.98
 628.59
 585.03
 545.32
 510.29
 529.76
 550.39
 572.15
 594.03
 613.93
 629.74
 644.46
 656.32
 667.19
 676.67
 684.10
 690.59
 695.53
 700.48
 705.23
 709.01
 712.91
 716.52
 720.06
 722.86
 722.87
 721.08
 670.88
 622.79
 580.31
 542.18
 507.76
 505.18
 475.17
 496.35
 515.51
 483.96
 456.27
 432.14
 456.83
 480.74
 502.37
 522.73
 541.96
 559.26
 576.14
 591.82
 607.04
 620.44
 631.89
 642.50
 652.55
 661.30
 669.67
 677.90
 685.31
 692.08
 699.17
 707.45
 716.01
 724.01
 731.61
 738.85
 745.46
 752.32
 757.88
 762.60
 766.14
 767.82
 768.34
 766.91
 763.82
 760.13
 754.72
 748.45
 741.40
 689.86
 643.28
 601.45
 563.50
 528.85
 497.77
 469.99
 444.99
 422.09
 402.28
 385.86
 372.27
 360.84
 351.16
 343.24
 368.02
 392.22
 414.49
 437.35
 462.41
 484.77
 504.59
 522.03
 537.53
 551.28
 563.25
 573.62
 582.96
 591.37
 599.13
 606.02
 612.51
 618.46
 624.72
 630.25
 635.62
 640.76
 646.18
 650.96
 655.77
 660.29
 664.76
 669.29
 673.56
 677.90
 681.91
 685.72
 648.45
 648.20
 606.28
 567.15
 538.34
 507.51
 522.15
 536.04
 548.64
 561.07
 572.56
 582.91
 592.52
 600.07
 607.26
 613.93
 618.84
 624.36
 628.22
 632.90
 636.71
 639.24
 642.21
 644.79
 646.51
 648.76
 650.59
 652.13
 654.11
 655.50
 657.25
 659.13
 660.61
 662.15
 663.34
 663.90
 664.51
 664.16
 663.85
 663.26
 662.04
 660.83
 658.65
 635.78
 599.41
 562.16
 528.65
 495.38
 462.74
 432.87
 402.98
 376.09
 351.88
 329.99
 310.29
 292.46
 276.41
 262.07
 248.97
 237.37
 227.03
 217.73
 209.16
 201.54
 194.49
 188.34
 182.60
 230.44
 275.00
 314.00
 348.60
 379.64
 406.88
 431.89
 454.60
 475.94
 493.85
 509.16
 522.34
 533.71
 543.34
 551.71
 559.13
 565.22
 570.50
 542.95
 513.55
 486.20
 461.08
 436.77
 410.99
 385.49
 360.45
 337.60
 317.34
 298.91
 282.32
 267.38
 253.85
 241.66
 230.90
 221.11
 212.39
 204.46
 197.31
 190.88
 235.69
 276.52
 312.37
 305.83
 295.95
 282.25
 267.63
 254.17
 241.95
 231.05
 221.25
 213.12
 268.71
 319.84
 366.66
 408.39
 441.25
 467.73
 438.05
 407.75
 380.27
 355.55
 333.09
 312.98
 294.78
 278.51
 264.06
 250.85
 239.06
 228.46
 218.91
 210.32
 202.49
 195.44
 189.20
 251.88
 307.79
 357.81
 402.53
 442.48
 478.33
 510.50
 539.25
 565.02
 588.42
 609.48
 628.33
 645.30
 660.57
 673.91
 685.52
 695.77
 704.79
 713.01
 720.11
 726.90
 733.81
 740.43
 746.49
 751.84
 756.75
 761.08
 764.57
 767.21
 769.39
 770.15
 770.44
 770.09
 769.08
 767.88
 766.59
 765.33
 764.60
 763.84
 763.05
 761.75
 760.07
 759.67
 759.90
 761.31
 763.88
 765.99
 768.49
 770.74
 772.67
 774.30
 775.27
 775.34
 774.61
 772.95
 771.85
 771.17
 770.65
 770.69
 770.82
 771.64
 773.07
 774.06
 775.16
 776.34
 777.11
 777.80
 777.82
 777.64
 777.37
 776.54
 774.98
 773.18
 770.86
 768.98
 766.48
 763.33
 760.10
 756.59
 753.33
 749.90
 745.71
 741.94
 696.64
 646.28
 601.15
 559.54
 522.58
 489.32
 459.29
 432.56
 408.31
 386.78
 367.60
 350.54
 335.38
 322.05
 310.04
 317.64
 314.07
 315.07
 352.76
 372.58
 404.33
 413.19
 392.37
 373.64
 356.47
 341.03
 327.32
 314.79
 303.61
 293.45
 284.41
 276.56
 269.71
 263.54
 258.08
 252.88
 248.39
 244.65
 242.08
 244.88
 242.89
 249.90
 291.91
 329.72
 364.65
 396.18
 424.56
 451.01
 475.01
 497.51
 518.16
 536.84
 553.66
 568.59
 581.13
 592.12
 600.21
 562.49
 528.34
 497.30
 469.77
 445.70
 436.83
 458.94
 478.55
 496.19
 511.97
 525.68
 538.61
 550.75
 561.67
 572.11
 581.30
 589.67
 597.30
 604.17
 610.55
 615.80
 620.42
 624.08
 627.27
 629.74
 631.97
 633.27
 634.64
 635.68
 636.11
 636.60
 636.74
 636.97
 637.37
 637.73
 638.16
 638.74
 639.07
 639.56
 639.81
 639.73
 639.55
 639.10
 638.89
 638.60
 638.94
 639.65
 640.98
 642.68
 644.81
 646.83
 649.05
 651.74
 654.57
 657.51
 660.66
 664.20
 668.08
 672.07
 676.56
 681.21
 685.98
 690.89
 696.10
 701.29
 706.86
 712.37
 710.24
 709.11
 708.30
 707.97
 708.27
 708.25
 708.62
 708.06
 707.35
 706.72
 693.95
 693.55
 693.80
 693.62
 694.56
 695.60
 697.04
 698.44
 699.39
 700.05
 701.05
 700.84
 701.36
 649.92
 603.33
 586.10
 597.59
 608.23
 617.71
 625.84
 633.25
 639.73
 641.95
 647.06
 635.05
 640.75
 645.87
 650.19
 655.17
 658.45
 662.21
 665.18
 667.17
 668.95
 670.75
 672.48
 674.63
 677.17
 680.45
 682.71
 683.24
 682.91
 682.52
 672.87
 625.78
 582.60
 543.14
 507.83
 476.05
 448.24
 424.12
 402.61
 384.14
 395.73
 423.26
 449.03
 471.33
 491.20
 508.78
 510.70
 526.83
 541.45
 555.20
 567.88
 579.69
 590.42
 599.98
 607.98
 614.38
 574.55
 537.49
 504.24
 474.42
 448.28
 429.65
 433.28
 452.86
 428.87
 406.08
 385.77
 367.00
 350.20
 335.68
 324.31
 360.08
 391.27
 420.14
 446.43
 472.39
 494.95
 500.45
 472.91
 492.42
 510.08
 525.47
 539.12
 551.01
 561.81
 571.83
 580.64
 589.08
 596.47
 602.52
 564.57
 526.81
 489.83
 455.55
 424.40
 396.26
 371.13
 348.52
 328.87
 311.18
 295.66
 282.29
 269.47
 257.72
 246.55
 236.09
 226.88
 218.59
 211.34
 205.30
 199.77
 195.29
 191.66
 202.40
 256.66
 305.79
 350.21
 394.39
 438.55
 478.40
 514.26
 546.63
 575.47
 601.02
 624.62
 645.86
 665.17
 682.55
 698.10
 712.39
 725.25
 736.43
 746.68
 755.81
 764.03
 771.33
 778.10
 784.09
 789.68
 794.51
 798.86
 802.77
 806.30
 809.47
 812.52
 815.07
 817.06
 818.25
 819.03
 818.83
 818.14
 817.03
 814.93
 812.23
 808.91
 804.82
 800.84
 796.05
 791.05
 786.44
 782.30
 779.07
 775.66
 772.30
 768.67
 764.60
 761.24
 758.02
 754.41
 751.37
 748.04
 735.83
 716.55
 663.59
 616.03
 573.23
 534.41
 499.97
 468.77
 440.89
 416.00
 393.60
 373.34
 355.21
 339.09
 324.58
 311.32
 299.09
 288.08
 277.87
 268.98
 260.69
 253.22
 247.80
 242.12
 275.30
 318.87
 357.79
 393.51
 425.76
 454.88
 481.79
 505.81
 527.43
 546.39
 562.85
 577.97
 591.47
 603.22
 613.90
 622.81
 631.03
 638.73
 645.45
 651.41
 656.87
 661.28
 665.85
 669.57
 672.91
 676.32
 678.59
 680.33
 681.50
 682.05
 682.34
 682.61
 682.85
 683.16
 683.25
 683.52
 683.67
 683.70
 684.03
 683.83
 683.75
 683.57
 683.11
 682.80
 682.52
 682.17
 681.25
 680.23
 679.11
 678.29
 678.07
 678.86
 679.87
 680.79
 683.01
 685.91
 689.52
 694.36
 699.93
 705.13
 710.62
 715.96
 721.36
 726.63
 731.56
 736.31
 740.48
 744.13
 747.62
 750.75
 753.68
 751.01
 748.91
 746.82
 744.64
 743.27
 740.25
 737.52
 735.37
 733.53
 731.88
 730.29
 728.96
 727.77
 726.29
 724.56
 722.00
 716.40
 663.36
 614.83
 570.84
 530.56
 494.40
 462.86
 434.98
 410.98
 392.98
 422.88
 449.49
 473.95
 497.25
 516.73
 534.25
 549.53
 564.58
 576.22
 586.30
 594.57
 593.21
 555.09
 520.18
 488.96
 460.87
 435.48
 413.43
 393.99
 421.69
 446.52
 468.97
 489.07
 507.16
 523.25
 537.82
 550.64
 569.88
 586.49
 600.94
 613.45
 624.60
 634.04
 642.54
 649.78
 655.91
 661.01
 665.21
 668.49
 671.24
 673.22
 674.50
 675.55
 676.29
 676.76
 677.19
 677.47
 677.62
 678.36
 679.22
 679.90
 681.21
 682.79
 684.51
 686.26
 688.23
 690.01
 691.51
 692.76
 694.18
 695.86
 697.88
 699.49
 700.84
 702.06
 702.85
 704.07
 704.86
 705.37
 706.14
 707.12
 708.71
 710.44
 712.40
 714.86
 717.07
 718.76
 720.79
 722.61
 724.65
 726.68
 728.51
 730.86
 732.68
 733.71
 734.14
 733.52
 732.87
 732.48
 731.74
 730.96
 729.57
 728.71
 729.64
 731.27
 734.55
 738.49
 742.94
 748.05
 753.44
 759.40
 765.56
 771.30
 776.87
 780.99
 784.19
 786.97
 788.77
 789.59
 789.53
 788.18
 785.26
 774.34
 711.40
 654.36
 605.43
 558.18
 515.47
 477.02
 442.52
 411.57
 383.61
 383.55
 429.09
 469.88
 502.50
 503.75
 488.87
 513.88
 475.80
 441.52
 411.06
 383.46
 358.41
 335.87
 315.68
 297.42
 351.67
 400.31
 444.18
 483.56
 519.00
 550.90
 579.51
 604.86
 625.67
 643.01
 623.81
 575.53
 532.37
 493.54
 458.78
 427.50
 399.55
 374.80
 352.82
 392.64
 431.37
 466.14
 498.12
 528.31
 554.68
 579.01
 601.81
 623.33
 643.50
 660.85
 676.06
 688.66
 697.89
 705.40
 710.16
 713.94
 717.65
 721.09
 724.58
 728.12
 731.61
 736.15
 740.13
 743.62
 746.86
 748.57
 749.11
 748.60
 747.64
 747.18
 746.16
 744.94
 743.95
 742.15
 740.94
 739.45
 737.90
 737.01
 735.71
 734.64
 733.57
 732.22
 731.20
 729.78
 728.00
 726.70
 725.73
 724.66
 723.69
 721.82
 719.84
 717.06
 676.05
 630.54
 588.19
 550.07
 520.86
 489.88
 477.09
 474.98
 452.78
 431.20
 409.78
 390.61
 373.45
 357.60
 343.54
 330.59
 318.83
 308.24
 298.62
 290.16
 282.14
 275.33
 268.70
 263.23
 257.70
 253.43
 249.69
 246.62
 243.96
 241.86
 241.18
 266.86
 306.67
 343.21
 376.09
 405.68
 432.41
 456.97
 479.47
 500.52
 520.07
 538.46
 555.42
 571.68
 587.21
 602.19
 616.07
 629.16
 641.45
 652.90
 663.41
 673.27
 682.74
 691.47
 699.52
 707.07
 713.86
 720.08
 725.47
 729.92
 734.03
 737.33
 740.39
 743.25
 745.83
 748.25
 750.42
 752.38
 754.34
 756.11
 757.50
 758.75
 759.57
 760.01
 759.71
 758.44
 756.60
 754.04
 751.23
 748.11
 744.60
 741.54
 738.29
 735.26
 732.23
 729.31
 726.38
 723.54
 720.79
 718.21
 715.69
 713.32
 711.09
 708.98
 707.08
 705.17
 703.05
 685.15
 648.63
 604.87
 565.18
 529.37
 497.03
 468.13
 441.91
 418.32
 397.29
 378.16
 360.94
 345.65
 331.89
 319.40
 308.36
 298.42
 289.48
 281.43
 274.09
 267.48
 261.73
 256.56
 252.00
 247.80
 244.02
 240.72
 237.65
 234.88
 232.49
 230.35
 228.51
 226.76
 225.58
 224.23
 223.10
 222.09
 220.88
 220.19
 219.18
 218.86
 218.07
 218.16
 218.05
 217.94
 218.05
 218.14
 218.33
 218.60
 218.84
 219.05
 219.15
 219.33
 219.50
 241.85
 286.46
 327.32
 364.09
 397.08
 426.77
 453.39
 477.45
 499.51
 519.56
 537.70
 553.93
 568.04
 581.13
 592.52
 603.37
 613.23
 622.81
 632.13
 640.62
 648.85
 656.67
 664.70
 673.33
 681.90
 689.81
 696.43
 702.18
 708.87
 716.68
 724.51
 731.66
 736.89
 740.60
 743.34
 746.01
 749.41
 752.97
 756.17
 759.05
 759.95
 759.65
 759.69
 760.02
 760.22
 759.80
 759.32
 758.88
 758.00
 757.40
 757.06
 756.35
 755.82
 754.93
 754.24
 753.32
 752.19
 750.87
 749.48
 747.43
 745.49
 742.84
 714.96
 684.66
 634.29
 613.36
 603.63
 580.07
 560.26
 521.43
 485.39
 453.85
 424.37
 398.93
 375.54
 355.38
 388.64
 422.68
 453.21
 480.79
 487.61
 469.05
 439.65
 412.78
 387.80
 366.02
 346.42
 328.88
 313.09
 299.28
 286.95
 275.86
 266.07
 257.36
 249.53
 242.98
 236.78
 231.30
 226.27
 221.04
 217.24
 212.91
 210.02
 207.62
 205.66
 204.39
 203.55
 202.90
 202.71
 202.74
 202.96
 203.67
 204.50
 205.55
 229.10
 267.09
 308.38
 345.64
 379.38
 409.84
 436.95
 461.46
 483.11
 502.10
 518.99
 533.99
 547.19
 558.67
 536.31
 520.58
 491.62
 465.46
 441.71
 420.44
 401.10
 383.99
 368.29
 354.36
 341.92
 330.73
 320.76
 311.88
 303.99
 296.89
 290.40
 284.66
 279.70
 275.23
 271.21
 267.68
 264.72
 261.84
 259.26
 257.43
 255.49
 253.74
 252.37
 250.73
 249.86
 249.07
 248.76
 263.79
 302.71
 338.94
 372.34
 403.11
 431.80
 458.12
 482.01
 504.41
 525.37
 544.83
 563.15
 580.33
 596.50
 611.55
 625.09
 637.58
 649.23
 660.00
 669.80
 678.62
 687.16
 695.04
 702.44
 709.20
 715.48
 721.33
 726.70
 731.63
 736.06
 740.26
 743.93
 747.14
 750.02
 752.32
 754.29
 755.46
 755.81
 755.43
 754.39
 752.75
 750.58
 748.02
 745.22
 742.39
 739.36
 736.22
 733.40
 730.36
 727.32
 724.49
 721.64
 718.68
 716.41
 713.97
 711.97
 709.97
 708.38
 706.74
 705.47
 703.92
 702.43
 701.28
 699.96
 698.36
 697.22
 695.70
 694.13
 692.92
 674.83
 653.74
 612.77
 572.99
 537.09
 504.78
 475.51
 449.25
 425.83
 404.45
 385.40
 368.06
 351.86
 337.77
 324.59
 313.23
 302.61
 293.45
 285.30
 278.07
 271.37
 265.53
 260.08
 255.27
 251.34
 247.81
 244.63
 241.76
 239.29
 237.06
 235.05
 233.15
 231.43
 230.09
 229.28
 228.25
 227.33
 226.49
 225.75
 225.37
 224.93
 224.64
 224.48
 223.83
 223.95
 223.65
 231.99
 237.49
 236.64
 235.07
 233.47
 232.02
 230.62
 229.46
 228.51
 227.36
 226.12
 225.91
 227.52
 272.67
 314.70
 352.63
 387.17
 418.45
 446.91
 473.22
 497.59
 520.63
 542.07
 561.16
 578.35
 593.41
 606.97
 620.67
 633.71
 646.84
 658.45
 667.61
 675.55
 682.99
 690.29
 697.76
 704.49
 709.54
 712.38
 713.65
 715.88
 718.99
 722.29
 726.06
 729.86
 734.17
 738.25
 741.33
 743.80
 746.82
 749.94
 753.34
 756.21
 758.49
 759.34
 758.90
 758.21
 757.69
 757.62
 757.86
 757.67
 758.01
 758.31
 757.88
 757.79
 757.71
 757.84
 757.95
 758.06
 758.25
 758.33
 758.40
 758.56
 758.40
 758.06
 757.65
 756.49
 755.14
 753.33
 751.39
 749.15
 708.34
 654.00
 605.80
 561.52
 522.77
 487.29
 456.06
 428.16
 402.94
 380.25
 359.82
 341.34
 324.91
 310.02
 296.71
 299.24
 342.22
 383.00
 420.90
 455.01
 485.41
 512.37
 536.33
 557.80
 576.42
 592.88
 606.99
 618.79
 628.91
 586.32
 544.99
 508.59
 474.63
 445.07
 418.66
 394.79
 373.71
 354.54
 336.59
 321.53
 307.98
 296.08
 285.77
 276.59
 269.03
 262.23
 256.61
 251.95
 247.65
 244.19
 246.17
 258.95
 301.56
 340.00
 374.60
 406.74
 435.07
 460.86
 484.07
 504.07
 522.56
 538.00
 552.20
 564.68
 530.11
 499.00
 470.90
 445.61
 423.25
 402.83
 384.64
 368.58
 354.12
 341.21
 329.79
 319.31
 309.78
 301.20
 293.58
 286.72
 280.45
 275.01
 270.00
 265.70
 261.93
 258.44
 255.40
 252.76
 250.18
 248.36
 245.93
 244.63
 243.07
 242.46
 241.92
 270.33
 308.99
 344.39
 376.95
 406.46
 433.51
 458.56
 481.91
 503.81
 524.43
 544.29
 562.86
 580.27
 596.65
 612.18
 626.56
 640.01
 652.41
 663.67
 674.20
 683.58
 692.12
 699.71
 706.54
 712.98
 718.69
 724.02
 728.62
 732.65
 735.89
 738.60
 740.34
 741.61
 741.95
 741.65
 740.69
 739.32
 737.49
 735.34
 733.00
 730.50
 727.65
 724.69
 721.62
 718.36
 715.22
 712.10
 709.39
 706.55
 703.80
 701.52
 698.86
 696.78
 694.10
 689.79
 680.81
 664.73
 641.46
 606.71
 567.94
 532.95
 501.35
 472.82
 447.13
 424.02
 403.02
 384.12
 367.31
 352.27
 338.65
 326.28
 315.35
 305.52
 296.77
 288.89
 281.80
 275.52
 269.87
 264.78
 260.40
 255.96
 252.47
 249.92
 258.23
 262.41
 268.07
 268.76
 275.28
 280.45
 280.91
 290.52
 301.67
 324.10
 358.39
 389.55
 411.10
 419.69
 404.02
 385.12
 367.20
 351.48
 351.54
 336.68
 322.51
 309.76
 297.49
 287.14
 278.22
 270.10
 262.09
 255.38
 248.54
 243.09
 249.68
 295.51
 337.16
 374.55
 407.69
 430.12
 423.11
 408.00
 424.80
 453.42
 479.88
 504.09
 526.18
 545.86
 563.78
 580.60
 596.24
 611.41
 626.07
 639.87
 652.28
 662.65
 671.19
 680.17
 689.35
 698.52
 707.16
 714.85
 721.86
 727.28
 732.35
 738.31
 744.18
 749.96
 755.37
 759.93
 763.34
 765.70
 768.33
 771.40
 773.76
 776.08
 777.68
 778.61
 779.05
 778.54
 778.69
 779.12
 779.71
 780.14
 779.92
 779.53
 778.98
 778.08
 777.07
 776.16
 774.55
 772.79
 770.51
 767.66
 765.10
 761.89
 759.00
 756.40
 753.36
 750.92
 734.93
 709.74
 657.76
 609.89
 567.10
 528.39
 493.95
 462.95
 434.86
 409.57
 386.22
 365.69
 347.32
 330.69
 315.02
 301.82
 289.94
 279.24
 269.72
 261.15
 253.63
 246.87
 240.88
 235.59
 230.74
 226.46
 222.72
 219.04
 216.24
 213.52
 211.36
 209.33
 206.59
 204.94
 202.84
 201.76
 200.38
 199.84
 199.36
 199.32
 199.29
 199.56
 199.61
 199.95
 200.25
 200.93
 201.63
 207.27
 207.54
 255.79
 299.31
 338.48
 373.93
 405.64
 434.17
 459.76
 482.08
 502.37
 520.24
 527.01
 542.31
 530.38
 510.94
 481.15
 454.23
 430.41
 408.57
 389.11
 371.50
 354.95
 340.66
 326.99
 315.39
 305.15
 295.94
 287.64
 280.38
 273.54
 267.79
 262.51
 257.76
 253.08
 249.47
 246.23
 243.50
 241.25
 239.53
 238.17
 237.16
 236.64
 241.18
 281.06
 319.35
 353.62
 385.16
 413.84
 440.06
 464.55
 487.30
 508.17
 527.45
 545.60
 562.64
 578.88
 594.09
 608.48
 621.83
 634.45
 646.31
 657.28
 667.45
 676.70
 684.73
 692.06
 698.75
 704.58
 709.92
 714.73
 718.96
 722.46
 725.21
 727.49
 729.24
 730.22
 730.60
 730.04
 728.83
 727.15
 725.04
 722.53
 720.08
 717.07
 714.26
 711.44
 708.29
 704.56
 693.81
 668.83
 634.54
 595.89
 561.40
 527.96
 499.46
 475.12
 458.51
 448.06
 448.35
 452.11
 472.80
 492.12
 509.81
 525.23
 539.51
 552.66
 564.39
 574.95
 584.46
 592.91
 600.72
 607.65
 613.48
 618.93
 623.64
 627.68
 631.31
 631.98
 634.78
 634.60
 633.84
 635.16
 626.64
 625.68
 621.81
 608.53
 587.48
 552.43
 519.89
 490.80
 463.62
 460.46
 469.11
 483.10
 500.59
 515.33
 525.10
 534.19
 548.07
 561.36
 573.63
 584.76
 595.19
 604.67
 614.10
 623.79
 634.21
 644.49
 654.24
 662.62
 670.36
 677.82
 686.04
 694.83
 703.45
 711.51
 718.86
 724.97
 729.97
 734.78
 740.30
 746.37
 752.23
 757.31
 761.88
 764.89
 767.10
 768.89
 770.60
 772.14
 773.43
 774.38
 774.95
 774.85
 774.77
 774.19
 773.97
 774.07
 773.87
 773.68
 772.61
 771.35
 770.22
 768.99
 767.79
 766.21
 764.29
 762.36
 760.13
 758.11
 756.30
 754.27
 752.65
 750.48
 748.03
 746.03
 707.73
 654.85
 606.17
 563.15
 524.24
 489.51
 458.36
 430.53
 405.37
 383.14
 362.82
 344.94
 328.75
 313.77
 300.59
 288.43
 277.89
 267.70
 259.43
 251.89
 245.60
 239.74
 234.57
 230.11
 226.00
 224.50
 221.15
 218.33
 216.00
 213.50
 210.75
 208.88
 207.19
 205.67
 204.30
 203.27
 202.54
 201.79
 201.61
 200.65
 200.89
 201.20
 201.88
 202.69
 203.72
 204.55
 205.69
 206.92
 208.03
 254.83
 297.55
 335.99
 370.99
 402.39
 431.35
 457.12
 479.91
 500.52
 518.66
 534.90
 549.61
 558.55
 560.09
 528.18
 496.36
 468.33
 442.40
 419.56
 398.50
 379.95
 363.36
 348.32
 334.79
 322.71
 311.54
 301.58
 292.63
 284.46
 277.32
 270.89
 265.20
 260.28
 255.85
 252.06
 248.66
 245.69
 243.22
 241.00
 239.10
 237.69
 236.22
 235.30
 234.17
 233.15
 231.54
 230.08
 229.48
 228.93
 253.83
 294.85
 332.17
 365.95
 396.95
 425.56
 451.60
 475.84
 498.16
 519.04
 538.44
 556.49
 573.25
 589.12
 604.01
 618.01
 631.01
 643.11
 654.80
 665.72
 676.04
 685.34
 694.11
 702.30
 709.57
 716.11
 722.20
 727.48
 732.03
 735.63
 738.36
 740.93
 742.94
 744.54
 745.99
 746.89
 747.40
 747.56
 747.40
 747.06
 746.56
 745.70
 744.73
 743.46
 742.41
 740.77
 738.59
 736.83
 734.65
 732.69
 730.22
 728.10
 725.89
 723.60
 721.14
 718.92
 716.53
 714.28
 712.05
 709.75
 707.77
 705.09
 702.88
 700.70
 698.63
 696.26
 689.04
 674.83
 662.95
 645.06
 627.15
 610.93
 600.94
 593.75
 593.87
 590.79
 590.81
 583.63
 574.06
 564.06
 549.75
 535.08
 527.27
 530.74
 543.37
 556.13
 567.42
 577.88
 587.09
 595.48
 603.03
 609.93
 616.54
 622.58
 627.62
 632.86
 637.18
 640.76
 644.08
 646.87
 649.79
 652.11
 654.20
 649.28
 629.05
 610.94
 575.05
 539.44
 507.40
 478.16
 451.84
 428.06
 405.95
 386.76
 368.78
 362.40
 377.56
 388.91
 418.22
 444.30
 467.87
 489.18
 507.66
 525.09
 541.29
 556.36
 570.72
 584.05
 596.04
 607.24
 617.62
 627.55
 637.20
 646.48
 655.93
 665.34
 674.90
 683.81
 691.53
 698.78
 705.70
 712.13
 718.82
 725.44
 731.39
 736.75
 741.08
 744.77
 747.99
 750.79
 754.01
 757.31
 760.18
 762.36
 763.83
 765.34
 766.41
 766.97
 767.77
 768.19
 768.38
 768.54
 767.78
 767.21
 766.58
 765.73
 765.55
 764.70
 763.43
 762.09
 760.18
 758.46
 756.71
 754.74
 753.07
 751.56
 751.40
 752.76
 754.69
 757.32
 760.89
 764.90
 769.01
 772.51
 774.86
 776.17
 776.05
 775.15
 773.53
 771.48
 769.33
 766.70
 763.93
 761.04
 758.03
 755.43
 752.49
 749.64
 747.07
 744.47
 742.02
 739.82
 737.44
 735.69
 733.72
 731.15
 729.84
 728.05
 727.25
 726.32
 725.19
 724.27
 709.64
 701.98
 650.98
 603.78
 562.60
 524.54
 491.29
 461.26
 434.23
 410.01
 388.21
 368.49
 351.64
 335.78
 321.70
 315.13
 303.12
 308.90
 300.11
 294.60
 298.64
 288.48
 289.13
 280.12
 272.61
 267.24
 259.22
 253.20
 247.78
 242.60
 238.24
 234.22
 264.69
 289.93
 324.93
 362.64
 396.58
 427.12
 455.31
 480.48
 504.33
 525.90
 545.81
 564.23
 580.50
 595.35
 608.32
 619.79
 630.51
 639.46
 647.51
 654.26
 659.43
 664.19
 667.57
 670.61
 673.05
 673.05
 670.24
 629.72
 587.35
 549.31
 514.88
 483.99
 456.29
 431.36
 408.93
 388.83
 370.85
 355.07
 340.76
 327.48
 316.24
 306.01
 297.01
 288.41
 281.27
 274.24
 268.52
 263.57
 259.11
 255.20
 257.78
 265.00
 303.70
 340.93
 374.44
 404.99
 432.59
 457.63
 480.87
 502.08
 521.88
 540.19
 557.37
 573.63
 589.27
 603.84
 617.86
 631.27
 644.04
 656.54
 668.09
 678.98
 689.18
 698.56
 707.31
 715.38
 722.84
 729.65
 735.89
 741.70
 747.23
 752.11
 756.80
 761.22
 765.09
 768.79
 772.11
 775.10
 777.79
 780.11
 782.40
 784.36
 786.12
 787.71
 788.84
 789.75
 790.68
 791.11
 791.30
 791.07
 790.36
 789.33
 787.79
 785.91
 783.72
 781.45
 778.91
 776.42
 773.57
 770.82
 767.83
 765.05
 762.15
 759.03
 755.93
 752.64
 749.47
 746.22
 743.10
 740.29
 737.46
 734.62
 732.05
 729.65
 727.38
 725.25
 723.42
 721.78
 720.00
 718.50
 716.95
 715.66
 713.89
 712.50
 711.15
 709.54
 707.98
 706.48
 704.84
 703.15
 701.74
 700.36
 698.93
 697.53
 696.38
 695.24
 694.22
 693.10
 692.09
 691.38
 690.34
 689.91
 689.02
 688.41
 687.67
 687.41
 686.96
 686.67
 686.30
 685.87
 685.38
 684.95
 684.65
 684.19
 683.87
 683.58
 683.22
 682.90
 682.61
 682.55
 682.79
 682.71
 682.84
 683.16
 683.34
 683.71
 684.44
 685.19
 685.97
 686.68
 687.91
 688.82
 689.64
 690.47
 691.33
 691.99
 692.69
 693.42
 694.08
 694.67
 695.31
 695.88
 696.49
 697.34
 698.41
 699.66
 701.20
 703.08
 705.47
 707.52
 709.57
 711.71
 714.74
 718.57
 722.81
 727.83
 732.55
 735.99
 739.09
 741.78
 745.31
 749.67
 754.41
 759.47
 763.92
 766.73
 768.76
 770.88
 773.99
 777.29
 780.46
 783.22
 785.30
 786.77
 787.29
 787.56
 788.90
 790.41
 791.17
 791.86
 791.77
 792.29
 792.66
 792.70
 793.23
 793.40
 793.56
 792.91
 791.52
 789.77
 787.39
 784.45
 781.90
 779.01
 776.31
 773.98
 771.48
 769.63
 766.87
 763.88
 761.10
 757.79
 754.81
 729.23
 708.40
 656.16
 608.45
 565.70
 527.03
 492.23
 461.01
 432.81
 407.62
 384.76
 364.59
 345.73
 329.35
 314.72
 301.55
 289.79
 279.21
 269.79
 261.41
 253.87
 247.28
 241.56
 236.40
 239.66
 234.79
 230.61
 232.45
 228.41
 232.57
 236.21
 231.89
 232.90
 228.01
 224.41
 221.37
 218.33
 215.80
 213.22
 210.10
 208.29
 205.96
 204.76
 203.89
 203.00
 202.40
 201.76
 201.58
 201.52
 201.57
 207.01
 206.81
 216.13
 243.12
 265.41
 263.77
 258.99
 259.99
 302.69
 341.02
 376.02
 407.52
 435.27
 460.24
 478.42
 492.47
 494.33
 468.69
 443.32
 419.99
 399.09
 380.28
 363.36
 348.22
 334.00
 321.90
 310.81
 300.93
 292.13
 284.12
 277.01
 270.71
 264.94
 260.04
 255.64
 251.78
 248.30
 245.07
 242.26
 239.74
 237.46
 235.62
 233.95
 232.76
 231.98
 231.38
 231.15
 231.63
 247.57
 289.01
 326.71
 361.14
 392.43
 420.88
 446.89
 470.61
 492.44
 512.10
 530.39
 547.15
 562.74
 577.66
 592.00
 605.70
 618.73
 631.15
 643.54
 655.18
 666.37
 677.03
 687.23
 697.00
 705.90
 714.21
 721.89
 729.00
 735.30
 740.87
 745.78
 750.11
 753.90
 757.01
 759.11
 760.79
 762.02
 762.81
 763.33
 763.70
 764.23
 764.71
 765.34
 765.90
 766.21
 766.89
 767.40
 767.86
 768.38
 768.54
 768.68
 768.42
 767.67
 766.71
 765.34
 763.60
 761.64
 759.28
 757.05
 754.25
 751.42
 748.58
 745.72
 743.15
 740.73
 737.96
 735.56
 733.21
 730.99
 728.69
 726.42
 724.48
 722.33
 720.30
 718.47
 716.72
 714.95
 713.25
 711.63
 709.97
 708.17
 706.45
 704.81
 703.23
 701.90
 700.61
 699.15
 697.84
 696.55
 695.30
 694.37
 693.43
 692.49
 691.94
 691.15
 690.43
 690.09
 689.48
 689.33
 689.10
 688.59
 688.23
 687.81
 687.53
 687.37
 687.24
 686.81
 686.33
 685.70
 684.83
 684.15
 683.93
 683.94
 684.64
 685.08
 685.47
 685.92
 686.63
 687.47
 688.72
 690.05
 691.24
 692.22
 693.30
 694.27
 695.04
 695.84
 696.55
 697.40
 697.96
 698.36
 698.83
 699.44
 699.90
 701.11
 702.20
 703.78
 705.20
 706.08
 706.67
 706.91
 708.11
 710.40
 713.56
 717.21
 721.39
 725.45
 729.40
 733.16
 737.65
 742.28
 746.75
 751.58
 755.52
 758.77
 760.79
 762.51
 764.76
 767.48
 769.74
 771.86
 773.08
 773.97
 773.67
 773.00
 772.70
 772.83
 773.85
 774.07
 774.06
 773.85
 773.17
 772.45
 771.31
 770.58
 769.82
 768.54
 767.28
 765.15
 763.14
 761.02
 758.72
 756.45
 753.90
 751.11
 748.50
 720.55
 672.40
 622.86
 578.27
 538.14
 502.03
 468.73
 440.05
 414.35
 391.81
 371.73
 354.16
 338.04
 323.84
 310.66
 299.19
 291.47
 282.02
 273.92
 266.43
 258.69
 252.82
 247.24
 242.51
 238.06
 233.75
 230.28
 226.95
 223.96
 221.26
 218.83
 216.75
 214.78
 213.00
 211.60
 210.14
 209.32
 208.19
 207.27
 206.15
 205.33
 204.80
 204.22
 203.90
 203.61
 203.25
 203.52
 203.37
 203.43
 203.49
 203.54
 214.99
 214.09
 214.78
 239.70
 238.13
 276.02
 308.62
 345.75
 380.68
 411.91
 440.62
 466.06
 488.35
 508.82
 527.34
 543.70
 558.73
 571.56
 583.10
 592.99
 601.99
 609.99
 602.39
 610.45
 615.41
 621.77
 628.09
 629.98
 635.18
 639.57
 644.01
 647.71
 651.04
 654.13
 656.52
 625.17
 594.85
 556.87
 522.78
 490.90
 463.01
 437.81
 415.13
 394.82
 376.53
 360.18
 345.66
 332.90
 321.81
 316.93
 334.23
 367.91
 398.72
 426.65
 451.98
 474.38
 495.25
 513.72
 530.75
 546.17
 560.16
 573.34
 585.61
 597.15
 608.23
 619.11
 630.10
 640.79
 651.01
 661.11
 670.70
 680.13
 689.21
 697.79
 706.51
 714.66
 722.40
 729.66
 735.99
 741.99
 747.49
 752.34
 756.61
 760.35
 763.21
 765.49
 766.84
 767.46
 767.81
 767.33
 766.40
 765.26
 764.13
 762.72
 761.15
 759.43
 757.69
 755.92
 754.33
 752.40
 750.36
 748.22
 746.10
 743.79
 741.01
 738.31
 735.48
 732.53
 729.58
 726.42
 723.08
 720.17
 717.05
 714.55
 712.29
 710.06
 708.06
 706.45
 704.71
 703.04
 701.63
 700.27
 699.04
 697.54
 696.18
 694.87
 693.68
 692.41
 691.27
 689.94
 688.65
 687.78
 686.51
 685.65
 684.59
 683.93
 683.24
 682.91
 682.52
 682.07
 681.86
 681.88
 681.69
 681.72
 681.55
 681.39
 681.45
 681.61
 681.95
 681.95
 682.46
 682.81
 683.33
 683.90
 684.51
 685.26
 686.03
 686.63
 687.17
 687.45
 688.00
 688.70
 689.33
 690.50
 692.15
 693.73
 695.06
 696.56
 698.30
 700.17
 701.85
 704.07
 706.06
 709.05
 711.85
 714.16
 716.25
 718.02
 720.02
 723.12
 726.71
 731.54
 736.48
 739.53
 741.88
 744.39
 747.55
 751.50
 755.75
 760.27
 764.15
 766.73
 767.16
 767.44
 769.10
 771.09
 772.98
 774.78
 776.60
 778.54
 779.69
 780.52
 781.67
 783.10
 784.89
 786.30
 786.67
 787.20
 787.18
 787.17
 786.05
 785.14
 784.53
 783.68
 782.61
 780.55
 778.29
 776.36
 774.23
 772.20
 769.88
 767.90
 765.21
 761.89
 758.60
 755.04
 751.73
 748.36
 744.92
 741.83
 715.75
 683.27
 633.85
 589.46
 549.72
 513.04
 480.94
 452.15
 426.13
 402.92
 382.13
 363.51
 346.96
 331.97
 318.67
 306.70
 296.03
 287.33
 278.70
 271.63
 264.76
 257.59
 256.33
 251.60
 261.64
 259.47
 258.13
 256.01
 251.01
 247.41
 243.17
 239.45
 236.21
 233.09
 250.58
 246.02
 241.92
 238.23
 235.00
 231.70
 228.73
 226.06
 224.05
 221.95
 220.15
 218.44
 216.99
 215.79
 214.72
 238.94
 283.85
 324.36
 361.63
 395.17
 425.55
 453.29
 477.66
 499.90
 520.01
 537.61
 553.85
 567.66
 580.20
 591.08
 600.67
 609.40
 614.96
 622.07
 628.06
 633.65
 638.79
 642.51
 646.56
 645.10
 621.19
 615.07
 580.77
 544.89
 512.00
 482.40
 455.76
 431.78
 410.21
 390.68
 373.22
 357.59
 343.44
 330.69
 319.32
 309.09
 299.98
 291.68
 284.11
 276.80
 270.82
 265.64
 261.08
 256.97
 253.37
 250.23
 247.81
 246.33
 244.70
 269.33
 305.69
 342.33
 375.69
 405.92
 434.03
 460.03
 484.13
 506.61
 527.85
 547.77
 566.39
 583.75
 600.08
 615.37
 629.73
 643.36
 655.92
 667.73
 678.76
 688.98
 698.58
 707.62
 716.16
 724.05
 731.34
 738.21
 744.59
 750.53
 756.08
 761.17
 765.75
 769.88
 773.59
 777.03
 780.03
 782.32
 784.49
 785.94
 786.95
 787.45
 787.41
 786.87
 785.78
 784.00
 781.80
 779.12
 776.41
 773.17
 770.05
 766.75
 763.47
 760.32
 757.09
 753.88
 750.99
 748.20
 745.68
 742.91
 740.42
 738.18
 735.96
 733.76
 731.59
 729.63
 727.66
 725.70
 723.83
 721.95
 720.15
 718.54
 716.78
 715.30
 714.07
 712.87
 711.68
 710.41
 709.17
 707.95
 706.76
 705.78
 704.50
 703.35
 702.52
 701.37
 700.33
 699.50
 698.75
 698.17
 696.95
 696.36
 696.22
 696.20
 696.48
 696.63
 697.27
 697.84
 698.46
 699.61
 700.65
 701.79
 703.41
 705.17
 707.05
 709.15
 711.33
 714.20
 717.48
 721.23
 725.31
 729.28
 733.05
 736.64
 740.78
 745.50
 750.55
 755.60
 759.24
 761.51
 763.66
 766.10
 769.69
 773.02
 776.12
 779.30
 781.67
 783.51
 784.16
 784.74
 785.77
 785.89
 785.60
 784.24
 782.72
 780.94
 778.75
 776.98
 775.28
 773.55
 771.89
 770.11
 768.09
 765.79
 763.91
 762.82
 761.93
 761.54
 761.09
 761.38
 762.14
 762.63
 763.36
 763.63
 763.46
 763.22
 762.20
 761.18
 760.26
 758.93
 757.84
 756.36
 755.12
 753.71
 752.34
 751.50
 750.45
 750.21
 749.49
 748.94
 748.84
 748.76
 750.08
 751.58
 753.02
 754.12
 754.20
 754.18
 753.17
 751.85
 751.16
 752.25
 754.52
 755.77
 755.59
 754.53
 751.88
 749.79
 747.11
 744.80
 742.42
 739.98
 738.58
 736.92
 735.83
 734.55
 733.29
 732.46
 731.12
 730.11
 728.90
 728.11
 727.49
 726.95
 726.75
 726.28
 726.15
 725.23
 723.81
 723.33
 722.20
 721.98
 720.88
 720.69
 720.62
 720.66
 720.99
 720.79
 721.21
 721.49
 721.54
 722.59
 722.83
 723.75
 724.47
 724.93
 726.03
 726.43
 727.29
 728.06
 728.95
 730.16
 731.04
 732.14
 732.52
 732.87
 732.98
 732.39
 731.75
 730.47
 728.52
 688.67
 638.11
 592.79
 551.92
 516.02
 483.72
 454.75
 428.97
 405.18
 384.76
 366.38
 349.94
 335.45
 322.31
 310.07
 299.67
 290.50
 282.65
 275.49
 269.04
 263.43
 258.29
 253.56
 249.60
 246.24
 243.22
 240.60
 237.64
 235.77
 238.30
 250.97
 293.07
 330.86
 365.18
 396.56
 425.10
 451.49
 475.84
 498.06
 518.75
 537.98
 556.08
 572.87
 588.58
 602.93
 616.43
 629.29
 641.06
 652.16
 662.64
 672.78
 682.40
 691.46
 700.41
 708.87
 716.78
 724.51
 731.86
 738.77
 745.29
 751.26
 756.74
 761.56
 765.91
 769.72
 773.04
 776.04
 778.84
 781.15
 783.14
 785.12
 786.51
 787.96
 789.36
 790.73
 791.35
 791.62
 791.36
 790.72
 789.75
 788.27
 786.55
 784.79
 782.61
 780.45
 778.31
 776.38
 774.34
 772.50
 770.85
 769.37
 767.73
 765.86
 764.47
 762.83
 761.24
 759.52
 757.67
 755.80
 753.82
 751.94
 749.84
 747.86
 745.97
 743.98
 742.08
 740.37
 738.83
 737.35
 735.82
 734.43
 733.09
 731.18
 729.66
 728.00
 726.70
 725.53
 724.27
 723.05
 721.54
 720.09
 718.78
 717.80
 716.82
 715.84
 715.46
 714.81
 714.23
 713.91
 713.32
 712.58
 711.93
 711.33
 711.10
 711.19
 711.27
 711.04
 710.54
 710.09
 709.98
 710.38
 710.94
 711.75
 713.07
 714.27
 715.14
 715.92
 717.73
 720.26
 723.13
 727.32
 732.29
 737.56
 741.90
 745.01
 747.91
 751.62
 756.46
 762.01
 767.61
 773.45
 778.71
 783.03
 786.03
 787.63
 789.17
 790.85
 793.26
 794.94
 796.34
 797.21
 797.29
 796.86
 796.07
 795.77
 796.09
 795.98
 795.28
 794.05
 792.35
 790.51
 787.86
 785.58
 783.02
 780.62
 777.96
 775.26
 772.63
 769.77
 767.59
 765.23
 763.11
 760.90
 743.81
 720.33
 664.80
 614.12
 569.20
 528.78
 492.61
 459.85
 430.56
 404.10
 379.89
 358.60
 339.44
 322.40
 306.96
 293.16
 280.75
 269.67
 259.71
 250.73
 243.06
 236.26
 229.83
 224.15
 219.03
 214.63
 209.97
 206.47
 203.32
 200.59
 198.13
 196.02
 194.22
 191.99
 189.90
 188.81
 187.83
 188.04
 187.24
 194.81
 193.93
 201.24
 209.82
 215.43
 219.09
 215.38
 216.24
 212.72
 209.75
 207.07
 204.37
 202.23
 200.11
 198.50
 196.95
 195.75
 195.28
 194.35
 193.51
 192.76
 192.19
 199.47
 198.22
 197.40
 196.56
 196.00
 195.60
 197.94
 197.15
 196.53
 209.08
 207.57
 206.11
 206.20
 204.18
 213.86
 212.08
 261.17
 305.35
 345.52
 381.87
 414.48
 444.33
 471.00
 494.80
 516.52
 535.87
 553.28
 568.65
 582.89
 595.20
 606.58
 616.82
 625.64
 633.77
 640.70
 646.83
 652.44
 656.90
 661.11
 650.50
 620.55
 578.79
 540.51
 506.66
 475.30
 447.67
 422.70
 400.33
 380.10
 361.99
 345.89
 330.70
 317.83
 306.15
 295.73
 286.46
 278.11
 270.60
 263.84
 257.86
 252.47
 247.52
 242.67
 237.70
 232.93
 228.14
 222.93
 218.63
 214.37
 210.43
 206.79
 203.51
 200.66
 197.89
 195.70
 193.63
 199.47
 241.42
 290.58
 335.22
 376.20
 413.98
 448.48
 480.43
 510.19
 538.17
 564.15
 588.64
 611.48
 632.93
 652.83
 671.55
 688.30
 703.37
 716.83
 728.95
 739.85
 749.77
 758.59
 766.73
 773.86
 780.27
 786.15
 791.43
 796.19
 800.37
 804.23
 807.71
 810.94
 813.74
 816.17
 818.35
 820.32
 821.99
 822.39
 822.25
 821.62
 820.36
 818.72
 816.95
 814.76
 812.58
 809.92
 807.23
 804.51
 801.56
 798.60
 795.84
 793.36
 790.62
 788.66
 786.59
 784.63
 782.87
 780.98
 779.09
 777.28
 775.45
 773.60
 771.94
 770.15
 768.23
 766.61
 764.85
 762.96
 761.27
 759.54
 758.19
 757.17
 756.15
 755.04
 754.23
 753.71
 753.14
 752.82
 752.34
 751.81
 751.43
 750.98
 749.99
 748.99
 747.99
 746.79
 745.51
 744.86
 744.67
 744.71
 745.04
 745.53
 746.58
 748.52
 751.47
 754.92
 758.63
 762.47
 767.02
 772.82
 779.14
 785.12
 790.51
 795.26
 799.73
 803.56
 807.00
 810.20
 812.98
 815.68
 818.02
 819.91
 821.72
 823.35
 825.02
 826.31
 827.48
 827.63
 826.87
 825.98
 825.29
 823.96
 822.86
 821.67
 819.91
 818.12
 816.71
 815.83
 814.95
 813.96
 812.76
 812.38
 812.75
 812.97
 813.47
 813.53
 812.37
 810.94
 809.34
 808.61
 807.85
 806.96
 805.07
 802.26
 799.63
 796.37
 793.43
 790.29
 786.36
 782.62
 778.06
 774.86
 771.37
 769.03
 765.63
 735.87
 699.18
 646.16
 598.85
 555.16
 516.65
 482.88
 451.69
 425.72
 400.45
 378.11
 357.00
 337.80
 322.42
 307.67
 321.31
 308.38
 350.04
 387.53
 411.68
 443.11
 453.80
 481.62
 506.36
 529.02
 549.42
 567.78
 584.50
 599.25
 613.63
 625.46
 636.02
 645.92
 654.62
 663.56
 670.41
 676.76
 682.49
 687.44
 692.20
 696.28
 700.25
 703.92
 707.53
 711.18
 714.16
 717.44
 719.70
 722.53
 725.18
 727.86
 731.07
 734.37
 737.43
 739.79
 741.71
 743.54
 745.08
 746.47
 746.83
 747.24
 747.02
 745.92
 744.73
 743.05
 741.25
 738.92
 736.93
 734.84
 691.75
 642.68
 596.81
 555.03
 517.93
 484.53
 454.48
 427.53
 402.98
 380.88
 360.89
 342.80
 326.42
 311.98
 299.28
 287.95
 277.86
 268.67
 260.61
 253.25
 246.92
 240.43
 235.39
 230.75
 226.47
 222.13
 217.71
 213.74
 209.67
 206.00
 202.40
 199.16
 196.54
 193.89
 191.80
 189.72
 188.25
 187.02
 186.32
 186.69
 186.02
 186.62
 202.46
 253.41
 299.37
 341.33
 380.20
 416.08
 449.47
 480.82
 509.54
 536.29
 561.26
 584.23
 605.81
 625.73
 644.06
 660.85
 676.47
 690.72
 703.85
 715.86
 726.88
 736.79
 745.71
 754.04
 761.73
 768.76
 775.08
 780.58
 785.62
 783.26
 771.13
 769.72
 768.95
 768.25
 768.03
 768.92
 766.93
 704.44
 648.09
 597.88
 552.20
 515.28
 479.35
 447.91
 456.02
 485.32
 512.49
 536.14
 541.33
 501.89
 466.20
 434.38
 405.74
 415.87
 448.68
 479.02
 505.91
 530.62
 559.26
 584.23
 606.11
 624.90
 641.21
 655.19
 667.27
 677.44
 686.10
 693.29
 699.46
 704.61
 708.85
 712.57
 715.41
 717.67
 719.70
 721.13
 722.32
 723.19
 723.97
 724.37
 724.63
 724.87
 724.88
 724.50
 724.25
 723.82
 723.44
 723.20
 722.88
 722.79
 722.41
 722.17
 721.95
 721.76
 721.48
 721.13
 720.42
 719.98
 719.58
 719.32
 718.89
 718.00
 717.00
 716.10
 715.29
 714.26
 713.74
 713.36
 713.03
 712.52
 712.27
 712.04
 711.64
 711.98
 712.38
 713.24
 714.12
 714.90
 715.71
 716.34
 717.71
 719.54
 722.08
 724.68
 727.81
 730.33
 732.69
 735.22
 738.60
 742.34
 746.11
 749.80
 752.82
 754.44
 756.29
 758.46
 760.92
 763.32
 765.09
 766.18
 766.86
 767.58
 769.02
 770.22
 771.60
 772.74
 773.56
 773.21
 771.79
 770.31
 768.88
 768.09
 766.98
 765.48
 763.83
 762.15
 760.94
 759.04
 757.44
 756.09
 754.58
 753.23
 751.40
 749.96
 748.37
 746.63
 744.97
 743.27
 741.94
 740.55
 739.19
 737.77
 736.20
 735.28
 733.45
 732.20
 731.18
 729.47
 727.62
 725.86
 724.47
 722.62
 721.56
 698.11
 670.30
 622.37
 579.43
 540.59
 504.93
 473.53
 445.28
 420.05
 397.45
 376.90
 358.51
 341.16
 326.25
 312.92
 301.13
 290.32
 280.58
 272.03
 264.32
 257.39
 251.25
 245.63
 240.86
 236.48
 232.83
 229.35
 225.51
 222.96
 220.56
 218.51
 216.36
 214.42
 212.98
 211.48
 210.33
 208.30
 207.37
 206.33
 205.30
 204.67
 203.80
 202.92
 201.63
 201.27
 200.94
 200.65
 201.38
 201.14
 201.13
 200.12
 200.00
 200.00
 200.10
 200.29
 200.36
 200.83
 200.84
 200.96
 201.06
 201.06
 201.45
 200.81
 201.23
 201.50
 201.65
 203.89
 203.70
 231.83
 229.35
 226.91
 225.32
 223.29
 248.16
 244.34
 270.51
 271.66
 311.39
 348.95
 355.76
 389.08
 411.97
 439.98
 465.58
 488.22
 509.40
 528.16
 545.34
 560.61
 574.65
 587.58
 599.02
 609.42
 618.38
 626.24
 615.22
 592.60
 553.34
 517.80
 485.92
 456.83
 431.15
 407.63
 386.67
 367.80
 350.72
 335.05
 321.24
 308.22
 297.20
 287.28
 278.55
 270.80
 263.92
 257.72
 251.45
 249.01
 291.21
 332.19
 370.27
 405.94
 439.25
 470.42
 499.68
 527.91
 554.42
 579.18
 602.26
 623.63
 643.67
 662.10
 678.89
 694.20
 707.78
 720.41
 731.66
 742.00
 751.40
 759.96
 767.76
 774.79
 781.41
 787.17
 792.35
 796.82
 800.43
 803.19
 805.07
 806.56
 807.01
 806.81
 806.13
 804.91
 803.52
 801.77
 799.59
 797.43
 794.99
 792.29
 789.56
 786.61
 783.75
 780.77
 778.09
 775.48
 772.94
 770.34
 767.91
 765.52
 763.67
 761.80
 760.22
 758.50
 757.05
 755.34
 753.61
 751.85
 750.26
 749.04
 747.93
 747.04
 746.14
 745.22
 744.10
 743.19
 742.67
 742.00
 741.90
 741.61
 741.25
 741.13
 740.61
 740.05
 739.55
 739.09
 738.78
 738.80
 739.22
 739.40
 739.96
 740.77
 741.89
 743.60
 745.64
 749.18
 752.96
 757.06
 761.06
 765.05
 768.95
 772.15
 775.64
 779.17
 782.26
 785.33
 787.90
 790.11
 791.20
 792.08
 792.77
 793.39
 794.85
 795.97
 796.57
 796.41
 795.67
 795.20
 794.38
 793.75
 792.57
 791.11
 789.50
 788.15
 787.24
 786.51
 785.86
 784.98
 784.48
 783.53
 782.28
 781.35
 779.31
 777.28
 775.35
 773.42
 771.18
 767.76
 764.98
 756.99
 742.89
 686.00
 634.50
 588.35
 546.81
 509.63
 475.97
 445.97
 419.17
 394.86
 373.17
 353.65
 336.29
 320.56
 306.60
 294.04
 282.74
 274.17
 264.95
 257.55
 249.20
 242.88
 237.19
 232.17
 228.15
 223.84
 221.76
 220.18
 218.56
 215.21
 212.08
 209.68
 207.11
 204.80
 201.92
 200.73
 199.45
 198.61
 198.25
 197.52
 197.27
 196.84
 196.56
 196.30
 196.07
 196.17
 195.15
 195.23
 195.11
 195.20
 195.18
 195.16
 195.45
 194.90
 195.71
 196.54
 197.39
 198.35
 199.31
 205.18
 204.66
 233.00
 230.70
 228.83
 235.84
 240.06
 284.05
 323.75
 359.67
 392.11
 421.00
 447.60
 470.74
 491.86
 510.98
 527.88
 542.89
 556.90
 569.61
 581.05
 591.35
 600.21
 607.69
 614.72
 620.85
 625.86
 606.58
 575.22
 540.70
 507.73
 478.56
 451.40
 427.66
 406.39
 387.25
 370.13
 354.62
 340.65
 327.69
 316.42
 306.38
 297.24
 289.52
 282.26
 275.74
 269.86
 264.88
 260.49
 256.34
 252.81
 249.63
 246.86
 244.38
 241.74
 239.97
 238.27
 236.74
 235.37
 234.03
 232.93
 232.04
 231.33
 230.80
 230.42
 230.18
 230.06
 229.95
 229.96
 229.96
 229.97
 230.17
 238.95
 261.06
 300.75
 336.78
 369.40
 399.16
 425.94
 450.25
 472.82
 493.34
 512.11
 529.40
 545.36
 560.22
 574.50
 588.35
 602.21
 615.89
 629.50
 642.45
 655.11
 667.30
 678.87
 689.38
 698.84
 707.36
 715.12
 722.21
 728.89
 735.00
 740.50
 745.55
 750.00
 753.50
 756.45
 758.30
 759.77
 760.39
 760.45
 759.91
 758.92
 757.73
 755.95
 754.06
 752.05
 750.15
 747.93
 745.54
 743.19
 740.87
 738.08
 735.27
 732.44
 729.60
 726.74
 723.97
 721.27
 718.54
 715.99
 713.79
 711.21
 708.99
 706.79
 704.81
 702.93
 701.04
 699.23
 697.51
 695.86
 694.27
 692.65
 691.28
 689.85
 688.37
 687.13
 685.72
 684.25
 683.12
 682.11
 681.00
 679.80
 678.72
 677.45
 676.50
 675.55
 675.00
 674.60
 673.94
 673.64
 673.18
 672.56
 672.11
 671.59
 671.34
 671.30
 671.07
 670.96
 671.07
 670.96
 670.76
 670.79
 670.81
 670.93
 670.94
 670.84
 671.46
 672.11
 672.70
 673.53
 674.18
 675.06
 675.85
 677.37
 679.33
 682.40
 685.56
 688.40
 691.56
 695.51
 700.56
 706.60
 713.04
 719.84
 726.15
 731.84
 737.05
 742.05
 747.84
 753.26
 758.13
 761.62
 763.36
 764.22
 763.80
 763.32
 762.19
 760.77
 758.89
 756.00
 753.40
 750.36
 746.73
 743.35
 740.12
 737.11
 734.80
 731.82
 728.93
 726.54
 723.99
 721.59
 719.03
 716.43
 680.38
 632.65
 591.58
 552.72
 518.15
 486.24
 458.31
 433.48
 410.43
 390.09
 371.98
 355.48
 340.73
 326.36
 314.32
 303.49
 293.74
 285.17
 277.35
 270.22
 263.99
 258.30
 253.17
 248.75
 244.67
 241.21
 237.99
 235.29
 232.76
 230.78
 228.90
 226.01
 224.51
 225.56
 224.01
 222.70
 221.53
 220.48
 219.73
 218.86
 218.07
 217.47
 217.02
 216.82
 216.64
 216.47
 216.63
 216.56
 217.01
 217.91
 218.72
 230.14
 231.03
 230.63
 229.96
 230.27
 273.14
 310.73
 302.25
 310.53
 302.98
 295.58
 289.32
 283.49
 278.54
 286.49
 314.54
 348.18
 379.16
 407.25
 433.02
 441.52
 463.17
 482.95
 500.26
 516.63
 530.67
 543.70
 555.43
 565.99
 575.39
 583.95
 587.36
 579.52
 548.67
 517.20
 489.78
 464.10
 440.99
 420.39
 401.75
 385.28
 370.35
 357.02
 344.81
 334.03
 324.53
 315.68
 307.81
 300.73
 294.26
 288.73
 283.96
 279.96
 286.06
 308.76
 342.98
 374.38
 402.65
 428.78
 452.40
 473.66
 493.30
 511.27
 528.34
 544.21
 559.29
 573.86
 588.07
 602.06
 615.96
 629.46
 642.62
 655.15
 667.14
 678.52
 689.07
 698.96
 708.17
 716.65
 724.59
 731.63
 738.06
 744.06
 749.45
 754.21
 758.49
 762.14
 765.32
 768.19
 763.07
 756.97
 748.37
 690.83
 638.55
 591.09
 549.08
 517.38
 484.04
 453.83
 426.95
 402.06
 440.55
 474.60
 504.94
 531.64
 555.18
 575.96
 594.06
 610.06
 624.15
 636.24
 646.71
 655.74
 663.57
 670.31
 676.08
 680.97
 685.07
 688.57
 691.41
 693.67
 695.40
 696.86
 697.98
 698.98
 699.78
 700.30
 700.77
 701.09
 700.99
 700.69
 700.22
 699.90
 699.31
 698.68
 698.11
 697.40
 696.66
 695.99
 695.29
 694.66
 694.30
 693.97
 693.97
 693.67
 693.61
 693.85
 694.16
 694.54
 694.89
 694.90
 695.61
 696.35
 696.71
 697.04
 697.54
 698.29
 699.16
 700.04
 700.64
 700.97
 701.58
 701.52
 701.87
 702.38
 703.04
 704.04
 705.13
 706.02
 707.52
 709.17
 712.05
 715.64
 719.68
 723.41
 726.77
 729.89
 733.90
 738.11
 742.90
 747.61
 751.95
 755.26
 757.53
 760.08
 762.87
 765.28
 768.15
 770.84
 772.85
 774.47
 775.02
 774.72
 773.95
 772.85
 771.27
 768.84
 766.96
 765.26
 763.34
 761.70
 759.73
 757.96
 756.26
 754.24
 752.51
 750.46
 748.32
 745.78
 743.21
 740.78
 737.81
 735.23
 732.30
 729.27
 725.45
 672.40
 624.86
 581.97
 543.38
 508.94
 476.65
 448.98
 423.88
 401.39
 380.36
 362.12
 346.01
 331.41
 318.57
 306.01
 295.41
 286.07
 277.46
 269.81
 263.03
 256.83
 251.45
 246.60
 242.34
 240.91
 237.42
 249.98
 247.68
 244.21
 242.19
 238.67
 254.00
 259.30
 283.87
 324.29
 334.96
 339.26
 326.43
 314.89
 330.20
 319.18
 355.26
 386.24
 415.21
 441.39
 465.25
 486.93
 505.53
 504.98
 522.38
 537.74
 551.07
 563.66
 575.00
 585.40
 594.56
 603.40
 611.36
 618.83
 625.34
 630.81
 635.73
 640.85
 645.47
 649.92
 653.63
 656.67
 659.50
 661.65
 663.59
 665.23
 666.60
 668.04
 669.04
 670.14
 670.72
 670.85
 671.16
 651.65
 633.48
 592.04
 554.53
 520.08
 489.67
 462.60
 438.14
 416.13
 396.42
 378.47
 362.43
 348.08
 335.28
 323.55
 312.89
 303.50
 295.05
 286.95
 280.35
 274.22
 268.80
 264.02
 260.01
 256.71
 253.64
 250.58
 248.22
 246.20
 244.58
 243.62
 243.86
 242.87
 243.29
 253.36
 264.42
 302.38
 338.74
 371.67
 401.30
 428.67
 453.30
 475.77
 496.20
 514.98
 532.38
 548.34
 563.01
 576.91
 589.92
 602.52
 614.57
 626.31
 637.88
 648.89
 659.60
 669.94
 680.15
 690.23
 700.01
 709.31
 718.38
 726.64
 734.28
 741.25
 747.82
 753.74
 759.07
 763.76
 768.08
 771.88
 775.59
 778.93
 782.14
 784.72
 787.05
 789.25
 790.92
 792.23
 793.41
 794.07
 794.56
 794.30
 793.77
 793.20
 792.08
 790.87
 789.38
 787.64
 785.48
 783.13
 780.52
 777.67
 774.80
 772.02
 769.12
 766.11
 763.30
 760.47
 757.72
 754.65
 751.88
 748.99
 746.09
 743.39
 740.65
 738.28
 736.05
 733.75
 731.07
 728.47
 725.92
 723.43
 720.78
 718.61
 716.55
 714.49
 713.04
 711.44
 709.99
 708.69
 707.23
 705.50
 704.25
 703.23
 702.50
 701.85
 701.37
 700.83
 700.35
 700.11
 699.40
 698.96
 698.27
 697.64
 697.58
 697.72
 698.45
 699.10
 699.49
 699.94
 700.15
 700.43
 701.19
 702.67
 704.80
 707.52
 710.47
 712.72
 714.85
 716.77
 719.19
 722.77
 727.09
 731.58
 735.53
 738.87
 741.79
 745.31
 749.78
 754.30
 758.87
 762.48
 764.83
 765.75
 766.88
 768.19
 769.47
 770.82
 771.54
 771.59
 771.33
 770.59
 769.94
 769.04
 767.44
 765.89
 764.60
 762.84
 761.46
 759.91
 758.92
 758.23
 757.31
 756.48
 755.13
 753.62
 752.65
 751.39
 750.45
 749.10
 747.29
 745.96
 744.47
 743.02
 741.72
 740.15
 738.43
 736.59
 734.93
 733.14
 730.72
 729.15
 727.64
 726.07
 724.47
 722.62
 720.66
 703.89
 666.30
 619.27
 576.74
 538.57
 504.21
 472.79
 445.11
 420.10
 397.89
 377.70
 359.73
 342.66
 328.19
 315.27
 303.55
 293.09
 283.78
 274.60
 267.34
 259.81
 253.93
 248.64
 243.87
 238.88
 235.20
 231.08
 232.07
 228.46
 262.42
 300.37
 339.84
 375.25
 406.93
 435.94
 461.84
 484.96
 506.06
 523.66
 540.69
 554.52
 568.07
 580.16
 589.75
 599.97
 591.47
 600.43
 580.08
 543.38
 531.14
 499.92
 518.93
 487.54
 459.58
 434.63
 411.96
 391.77
 373.49
 357.04
 342.74
 329.46
 317.82
 306.54
 297.08
 290.47
 283.03
 282.62
 275.96
 269.67
 264.60
 259.74
 301.26
 338.74
 372.66
 403.10
 430.09
 455.18
 477.56
 497.21
 515.48
 531.44
 546.19
 559.27
 571.15
 582.23
 591.71
 600.64
 608.37
 615.14
 621.42
 626.38
 631.14
 635.23
 638.61
 641.64
 644.08
 640.57
 607.21
 568.89
 535.20
 504.78
 477.41
 452.96
 430.27
 410.64
 392.38
 376.74
 362.77
 350.09
 338.98
 330.08
 320.87
 312.89
 305.40
 298.76
 292.88
 286.79
 283.51
 279.86
 275.68
 273.71
 272.24
 281.31
 301.38
 327.44
 359.00
 387.50
 413.95
 438.06
 460.05
 480.24
 499.02
 516.22
 532.70
 548.93
 564.73
 580.26
 595.73
 610.76
 625.48
 639.44
 652.59
 664.93
 676.34
 686.81
 696.33
 705.29
 713.46
 721.02
 728.12
 734.70
 740.33
 745.30
 749.57
 753.11
 756.00
 758.50
 760.65
 762.59
 764.33
 765.79
 767.22
 768.39
 769.55
 770.40
 770.56
 770.10
 769.09
 767.08
 764.78
 761.80
 758.42
 755.08
 751.67
 748.10
 744.39
 740.65
 737.19
 733.67
 730.40
 727.06
 723.56
 720.40
 717.26
 714.33
 711.70
 709.13
 706.62
 704.26
 701.63
 699.27
 697.34
 695.61
 694.65
 693.78
 693.20
 693.08
 693.27
 693.15
 692.23
 691.01
 690.21
 689.59
 689.33
 690.10
 691.29
 692.36
 694.72
 696.55
 699.19
 702.98
 708.48
 715.33
 722.00
 728.20
 733.88
 739.69
 746.42
 754.08
 762.07
 769.56
 775.41
 780.87
 785.48
 790.83
 795.55
 799.79
 803.61
 807.35
 810.42
 812.78
 812.70
 811.33
 809.30
 806.37
 803.63
 800.47
 797.82
 794.54
 791.08
 787.78
 783.90
 780.21
 776.79
 773.61
 770.55
 767.99
 764.59
 761.63
 758.77
 755.79
 753.61
 751.05
 748.55
 746.69
 744.42
 742.38
 739.94
 737.55
 735.19
 732.37
 729.24
 726.91
 724.52
 722.67
 720.70
 718.63
 716.57
 714.91
 712.52
 710.17
 708.55
 706.60
 705.24
 702.71
 701.14
 694.53
 688.27
 659.05
 614.44
 576.50
 540.05
 507.24
 478.12
 451.01
 426.91
 405.22
 385.29
 367.66
 352.00
 337.70
 335.13
 335.22
 363.29
 394.86
 423.18
 448.56
 471.20
 491.18
 509.87
 525.68
 539.31
 551.78
 562.50
 572.85
 582.17
 590.55
 598.59
 605.64
 611.77
 617.49
 622.65
 626.88
 630.89
 634.10
 637.49
 596.54
 559.49
 558.24
 524.72
 494.84
 467.76
 443.28
 426.96
 406.16
 387.24
 370.32
 354.59
 340.73
 328.46
 317.21
 307.09
 297.38
 289.34
 281.01
 274.01
 267.61
 262.15
 257.23
 252.91
 248.92
 245.53
 242.57
 239.92
 237.42
 235.48
 233.83
 232.55
 231.40
 230.56
 229.80
 229.42
 229.18
 229.36
 272.52
 312.17
 348.95
 382.86
 414.67
 444.61
 473.15
 499.53
 524.38
 547.54
 569.09
 589.48
 608.13
 625.12
 641.50
 656.55
 670.10
 682.49
 693.34
 702.91
 711.42
 718.87
 725.39
 731.15
 736.13
 740.52
 744.37
 756.93
 695.54
 710.48
 707.94
 721.64
 738.28
 749.05
 759.34
 771.81
 783.03
 793.23
 802.20
 810.08
 817.17
 823.76
 829.58
 835.02
 839.72
 844.15
 848.13
 851.42
 854.48
 856.93
 859.24
 861.21
 863.09
 864.78
 866.30
 867.77
 869.20
 870.28
 871.25
 872.12
 872.91
 873.52
 874.27
 874.94
 875.45
 876.00
 872.20
 868.78
 865.60
 862.94
 860.45
 858.40
 856.46
 854.62
 852.86
 851.37
 850.03
 848.73
 847.76
 846.88
 845.99
 845.19
 844.47
 843.83
 843.34
 842.71
 842.24
 841.71
 841.44
 841.00
 840.90
 840.61
 840.35
 840.31
 840.08
 839.77
 839.70
 839.63
 839.56
 839.41
 839.27
 839.24
 839.12
 839.00
 838.80
 838.62
 838.56
 838.71
 838.83
 838.65
 838.69
 838.92
 838.83
 838.74
 838.77
 838.69
 838.62
 838.76
 838.08
 837.68
 836.41
 834.37
 833.33
 832.80
 831.02
 828.32
 825.18
 823.37
 820.73
 817.56
 815.70
 813.33
 810.00
 806.80
 802.42
 799.48
 795.23
 790.71
 786.84
 755.35
 696.22
 673.39
 622.76
 634.08
 643.47
 652.32
 661.09
 668.58
 675.12
 681.71
 686.84
 691.96
 696.46
 700.22
 703.19
 705.37
 707.34
 709.40
 710.46
 711.52
 711.76
 675.99
 627.69
 583.02
 543.62
 506.96
 475.26
 446.73
 421.26
 398.24
 378.01
 410.71
 441.24
 469.02
 492.71
 473.94
 446.95
 471.95
 496.06
 518.15
 538.94
 558.84
 576.96
 594.26
 610.84
 625.25
 638.43
 650.98
 662.39
 672.95
 682.55
 694.10
 706.19
 716.17
 721.55
 723.00
 667.30
 617.07
 570.76
 530.18
 493.97
 518.07
 542.76
 563.49
 580.14
 593.02
 552.32
 515.79
 503.41
 522.57
 541.31
 558.08
 572.97
 586.38
 598.34
 609.00
 618.30
 626.07
 632.67
 637.90
 642.41
 625.57
 584.51
 547.46
 514.11
 483.60
 456.64
 432.48
 410.83
 391.55
 374.29
 359.16
 345.85
 334.06
 323.46
 313.71
 304.94
 297.15
 290.13
 284.02
 278.62
 273.85
 279.07
 284.06
 284.16
 295.94
 322.65
 356.78
 388.10
 416.39
 442.15
 465.84
 487.75
 507.98
 526.48
 544.03
 560.53
 576.28
 591.45
 606.10
 619.79
 633.01
 645.31
 656.88
 667.99
 678.39
 688.15
 697.24
 705.62
 713.45
 720.61
 727.25
 733.22
 738.80
 743.72
 748.25
 752.32
 755.99
 759.09
 761.78
 764.20
 766.38
 768.15
 769.73
 771.16
 772.34
 773.11
 773.90
 774.61
 775.15
 775.63
 775.87
 775.78
 775.50
 774.85
 774.07
 773.16
 772.14
 771.13
 769.72
 768.25
 766.22
 763.90
 761.51
 758.96
 756.26
 753.64
 750.87
 748.29
 745.56
 742.60
 739.44
 736.40
 733.16
 729.74
 726.87
 723.78
 720.60
 717.44
 714.30
 711.07
 707.96
 705.37
 702.73
 700.26
 698.43
 696.69
 695.02
 693.52
 691.86
 690.38
 688.54
 687.09
 686.48
 685.63
 684.97
 684.37
 684.43
 684.39
 684.25
 684.23
 683.90
 682.71
 681.44
 680.70
 680.63
 681.36
 680.93
 681.24
 681.11
 681.10
 681.49
 682.74
 684.67
 687.20
 689.68
 692.01
 693.81
 695.13
 696.42
 698.28
 701.25
 705.02
 708.82
 711.24
 713.11
 715.40
 718.46
 721.72
 725.44
 729.30
 732.97
 736.87
 739.89
 742.40
 745.16
 749.04
 753.24
 757.31
 760.88
 763.59
 764.93
 765.84
 767.56
 769.70
 771.43
 772.79
 773.31
 772.68
 771.41
 769.87
 768.78
 767.20
 765.28
 763.26
 762.13
 760.72
 759.25
 757.42
 756.28
 754.95
 753.56
 752.00
 749.90
 747.51
 744.76
 741.28
 699.65
 648.39
 602.05
 560.25
 522.72
 489.15
 459.13
 435.22
 415.80
 417.72
 445.95
 424.75
 401.68
 379.91
 361.42
 344.88
 329.99
 316.49
 304.24
 293.22
 283.30
 273.97
 265.87
 257.98
 251.58
 244.73
 240.25
 236.83
 235.24
 240.42
 236.38
 232.54
 229.19
 226.17
 223.65
 221.39
 219.45
 218.20
 216.98
 228.18
 263.27
 305.84
 343.86
 378.87
 410.18
 438.46
 448.62
 428.06
 406.55
 386.40
 368.46
 352.41
 337.17
 324.05
 311.95
 301.05
 290.75
 283.07
 323.67
 361.30
 395.37
 426.03
 452.23
 475.61
 496.95
 516.45
 534.81
 551.23
 566.30
 579.97
 592.07
 600.87
 562.18
 527.26
 496.04
 468.03
 442.63
 419.87
 398.98
 380.68
 364.41
 349.87
 337.09
 325.08
 315.17
 315.65
 306.79
 298.71
 291.54
 285.08
 280.28
 274.75
 269.67
 265.11
 261.00
 257.30
 254.07
 251.26
 248.63
 246.37
 244.53
 243.18
 241.66
 240.40
 239.66
 239.49
 239.34
 239.11
 239.40
 240.26
 241.33
 269.90
 305.41
 337.57
 366.71
 394.04
 419.44
 442.89
 464.70
 485.23
 505.01
 523.61
 541.35
 558.31
 574.58
 590.02
 604.82
 618.84
 631.85
 644.17
 655.45
 666.11
 675.90
 685.01
 693.31
 700.98
 707.88
 713.99
 719.49
 724.54
 728.89
 733.00
 736.50
 739.65
 742.38
 744.65
 746.58
 748.22
 749.60
 750.94
 751.95
 752.55
 753.10
 753.19
 752.77
 751.79
 750.51
 748.96
 746.86
 744.48
 741.93
 739.34
 736.40
 733.46
 730.42
 727.78
 725.30
 722.97
 720.67
 718.40
 715.76
 713.09
 710.48
 708.13
 705.22
 702.70
 700.83
 698.74
 696.87
 695.28
 692.85
 690.87
 689.38
 688.04
 687.04
 686.74
 686.86
 686.88
 686.59
 686.83
 687.25
 687.72
 688.45
 689.50
 690.55
 691.90
 692.71
 693.44
 693.59
 693.53
 693.48
 693.33
 693.60
 694.54
 695.69
 697.32
 699.19
 701.67
 705.90
 711.21
 716.99
 723.09
 728.28
 732.35
 735.82
 739.54
 744.08
 748.77
 753.60
 757.34
 759.90
 760.61
 760.65
 761.39
 762.65
 763.18
 762.86
 762.18
 761.66
 760.99
 760.29
 759.87
 759.28
 758.95
 758.36
 757.52
 756.47
 755.52
 754.67
 754.00
 752.90
 751.51
 749.96
 747.46
 745.22
 742.80
 739.92
 737.92
 736.13
 734.82
 733.04
 730.83
 728.55
 726.40
 724.26
 722.23
 719.21
 703.09
 701.58
 700.02
 698.72
 696.85
 695.56
 669.71
 623.83
 582.95
 545.96
 512.46
 482.61
 456.05
 432.05
 410.44
 390.90
 373.31
 357.58
 343.42
 330.78
 319.40
 309.16
 300.14
 292.13
 285.02
 278.82
 273.23
 268.31
 263.88
 259.69
 256.02
 252.82
 249.84
 246.05
 243.75
 241.17
 261.26
 273.73
 313.06
 348.35
 380.22
 409.00
 434.50
 457.75
 478.77
 497.49
 514.44
 529.60
 542.54
 547.49
 514.64
 485.97
 460.48
 437.43
 422.89
 403.30
 385.77
 370.09
 356.08
 343.47
 332.63
 322.36
 312.33
 304.09
 295.79
 289.81
 286.43
 281.58
 293.72
 288.05
 324.65
 325.38
 358.04
 388.84
 416.56
 441.50
 464.15
 484.64
 503.47
 520.02
 535.12
 548.61
 560.25
 570.62
 579.66
 587.70
 594.53
 581.47
 556.03
 523.52
 493.97
 467.37
 443.44
 421.49
 402.14
 384.13
 368.42
 353.87
 341.19
 329.97
 320.07
 311.36
 303.73
 296.96
 290.86
 285.57
 280.72
 276.54
 272.59
 269.13
 266.02
 262.92
 260.12
 257.41
 254.87
 252.68
 250.82
 249.03
 247.83
 246.75
 246.07
 274.37
 311.13
 344.72
 374.94
 403.05
 428.74
 452.27
 474.04
 494.34
 513.21
 530.88
 547.50
 563.65
 578.88
 592.89
 605.60
 617.54
 628.29
 637.86
 646.57
 654.92
 662.43
 669.78
 676.80
 683.62
 690.36
 696.73
 702.75
 708.28
 713.35
 717.81
 721.73
 725.46
 729.01
 732.41
 735.37
 737.93
 740.14
 742.23
 743.80
 745.02
 746.02
 746.92
 747.23
 747.30
 747.17
 747.06
 746.55
 745.70
 744.53
 743.17
 741.76
 740.18
 738.06
 735.96
 733.56
 730.70
 727.73
 724.76
 721.68
 718.32
 714.98
 711.79
 708.71
 705.64
 702.47
 699.63
 696.86
 694.38
 691.94
 689.65
 687.18
 684.86
 682.48
 680.23
 678.11
 676.10
 674.09
 672.08
 670.37
 668.73
 667.16
 665.44
 663.80
 662.32
 660.79
 659.31
 657.78
 656.60
 655.54
 654.29
 653.26
 652.13
 651.32
 650.29
 649.76
 649.48
 649.63
 649.77
 649.69
 649.92
 650.73
 651.26
 651.33
 651.80
 653.62
 654.66
 656.19
 658.07
 659.97
 662.37
 664.73
 667.26
 669.63
 671.57
 673.71
 675.74
 678.77
 682.89
 688.30
 694.47
 700.32
 705.99
 712.09
 719.08
 726.47
 733.63
 740.26
 746.24
 750.61
 754.55
 758.10
 761.39
 764.65
 766.78
 768.11
 768.09
 766.79
 764.61
 762.45
 761.20
 760.68
 759.71
 758.14
 755.83
 752.74
 750.57
 749.51
 748.76
 747.49
 745.64
 743.87
 741.49
 739.44
 737.19
 735.07
 732.77
 730.79
 728.61
 726.65
 724.69
 722.62
 720.95
 719.36
 716.52
 713.67
 663.80
 619.02
 578.62
 542.46
 540.01
 552.91
 554.62
 566.66
 577.19
 586.57
 595.12
 559.30
 525.97
 494.88
 467.69
 442.32
 420.39
 399.55
 382.19
 366.17
 352.06
 339.35
 327.92
 317.72
 308.45
 300.31
 293.08
 286.47
 280.72
 275.35
 270.71
 266.64
 262.88
 259.69
 257.02
 254.42
 252.08
 249.87
 248.08
 246.67
 245.51
 244.26
 243.53
 243.88
 279.09
 316.78
 325.20
 356.38
 370.04
 398.24
 424.02
 446.71
 467.24
 485.72
 502.15
 517.13
 529.92
 542.13
 553.01
 562.61
 571.05
 552.25
 521.72
 494.25
 469.32
 447.29
 449.96
 461.77
 479.79
 491.21
 475.19
 457.37
 437.03
 417.53
 400.98
 385.08
 371.67
 358.70
 347.53
 337.48
 328.53
 320.68
 313.91
 307.72
 302.65
 298.18
 294.26
 290.74
 287.56
 284.11
 281.70
 279.33
 276.89
 275.01
 273.50
 273.35
 281.32
 309.79
 333.01
 362.61
 389.95
 414.75
 437.18
 457.46
 476.41
 493.57
 509.41
 524.27
 538.35
 552.11
 565.10
 577.49
 589.44
 601.30
 612.77
 623.79
 634.31
 644.38
 654.04
 662.94
 671.24
 678.92
 686.23
 693.00
 698.90
 704.51
 709.56
 714.11
 718.50
 722.75
 726.97
 730.67
 734.11
 737.20
 739.78
 742.10
 744.09
 745.88
 747.39
 748.35
 749.12
 749.51
 749.46
 748.81
 747.83
 746.35
 744.71
 742.74
 740.57
 738.11
 735.60
 732.84
 730.05
 727.05
 724.14
 720.73
 717.46
 714.31
 711.18
 708.36
 705.53
 702.97
 700.48
 697.43
 695.09
 692.38
 689.84
 687.46
 686.51
 686.46
 686.91
 687.42
 687.78
 688.40
 688.86
 689.38
 689.84
 690.05
 689.95
 689.75
 689.48
 689.13
 689.12
 689.81
 690.42
 690.98
 691.18
 690.97
 691.27
 692.94
 695.85
 699.66
 704.20
 707.88
 711.09
 714.38
 719.24
 724.72
 730.55
 736.09
 741.18
 745.06
 748.16
 751.24
 754.92
 758.53
 761.07
 762.77
 763.49
 763.74
 762.97
 760.97
 759.17
 757.96
 756.26
 754.53
 752.38
 750.54
 748.89
 747.30
 745.67
 743.20
 740.18
 736.56
 732.71
 729.84
 726.55
 723.40
 720.56
 718.10
 714.69
 711.12
 706.41
 702.77
 698.59
 695.23
 692.51
 671.86
 627.37
 587.54
 551.58
 519.42
 490.48
 464.53
 467.78
 486.80
 504.62
 521.06
 536.05
 549.85
 561.96
 572.87
 582.78
 591.80
 599.82
 606.74
 613.67
 619.70
 625.43
 630.59
 635.33
 639.29
 642.87
 645.98
 648.28
 650.55
 652.70
 654.33
 655.60
 656.44
 656.89
 657.30
 657.57
 657.72
 657.54
 656.99
 656.69
 656.42
 656.38
 654.94
 613.85
 576.56
 542.21
 511.49
 483.14
 457.62
 434.36
 415.82
 399.44
 385.20
 371.78
 368.70
 395.23
 419.41
 441.27
 460.94
 478.55
 494.69
 508.92
 521.33
 532.20
 520.98
 499.58
 474.72
 452.25
 431.92
 413.73
 397.06
 382.05
 368.75
 356.67
 346.01
 336.70
 328.13
 320.92
 314.23
 308.51
 303.76
 299.48
 295.93
 292.94
 303.44
 328.00
 356.90
 383.11
 407.30
 429.37
 449.63
 468.37
 485.83
 502.25
 517.82
 532.74
 547.07
 560.86
 574.27
 587.25
 600.02
 612.12
 623.41
 634.07
 644.06
 653.15
 661.74
 669.47
 676.52
 683.07
 688.86
 693.77
 698.20
 701.98
 705.38
 708.44
 711.30
 714.07
 709.26
 705.33
 702.10
 699.29
 697.46
 696.82
 697.53
 700.18
 702.36
 700.23
 698.30
 686.17
 639.36
 597.52
 560.67
 570.60
 578.94
 578.05
 554.74
 521.47
 491.52
 464.27
 438.94
 417.25
 398.02
 380.22
 365.10
 401.39
 433.45
 461.71
 486.53
 508.28
 527.55
 544.20
 558.68
 571.21
 581.29
 590.76
 599.28
 606.56
 612.60
 618.14
 622.43
 626.28
 629.66
 632.59
 635.53
 637.78
 639.70
 641.03
 642.23
 642.50
 643.25
 643.53
 644.18
 645.76
 646.88
 647.69
 648.32
 648.39
 649.15
 650.44
 653.89
 658.10
 661.89
 665.00
 667.00
 668.70
 670.93
 673.84
 678.06
 682.95
 688.26
 693.53
 698.98
 704.58
 710.22
 715.70
 721.03
 726.23
 730.60
 734.34
 736.91
 738.42
 739.68
 741.41
 743.07
 743.76
 743.18
 741.47
 739.22
 738.70
 738.33
 738.10
 737.99
 736.89
 735.30
 733.57
 731.21
 728.79
 726.11
 723.40
 721.06
 718.45
 715.91
 714.02
 711.82
 709.53
 707.68
 705.41
 703.77
 702.09
 699.38
 696.55
 694.09
 690.98
 688.18
 685.77
 683.79
 682.01
 680.31
 678.68
 677.01
 675.11
 631.10
 591.19
 555.57
 523.31
 494.48
 468.83
 445.55
 424.99
 406.40
 389.66
 375.19
 361.57
 349.41
 347.17
 335.76
 333.98
 323.98
 316.68
 316.92
 312.32
 343.99
 343.09
 333.98
 325.98
 319.09
 312.58
 344.42
 335.48
 327.33
 325.20
 355.48
 383.33
 407.90
 429.41
 449.57
 467.61
 446.95
 464.85
 481.27
 496.54
 509.19
 520.17
 530.55
 505.20
 516.68
 527.11
 536.80
 545.12
 552.81
 559.93
 566.93
 573.44
 579.50
 584.95
 589.35
 593.72
 597.34
 600.81
 603.83
 606.05
 608.24
 609.82
 611.14
 611.92
 612.53
 612.68
 609.81
 576.23
 545.91
 518.41
 493.77
 471.40
 451.06
 432.95
 417.36
 403.32
 389.99
 378.89
 368.50
 359.65
 351.59
 344.53
 338.07
 332.27
 327.14
 323.03
 319.02
 317.42
 328.68
 355.31
 379.38
 401.24
 421.32
 439.69
 456.62
 472.86
 487.77
 501.89
 515.20
 527.88
 539.59
 551.24
 562.51
 573.26
 583.73
 593.46
 603.21
 612.19
 620.57
 628.42
 635.97
 643.48
 650.73
 657.36
 663.52
 668.57
 672.41
 675.07
 677.06
 678.96
 680.66
 682.60
 684.64
 686.37
 687.64
 688.47
 688.72
 688.25
 687.63
 686.46
 684.92
 683.03
 680.82
 678.34
 675.71
 673.04
 670.03
 667.13
 664.12
 661.50
 658.85
 656.37
 654.33
 652.30
 651.47
 650.82
 650.34
 650.01
 649.21
 647.78
 646.91
 646.62
 645.55
 644.40
 643.56
 643.20
 642.48
 641.83
 640.85
 640.37
 640.13
 639.82
 639.73
 639.26
 639.33
 639.60
 639.94
 640.35
 640.91
 640.52
 641.47
 643.12
 645.81
 649.43
 653.29
 657.46
 662.31
 668.18
 674.46
 681.02
 687.71
 693.84
 699.16
 703.44
 707.00
 710.00
 713.90
 718.01
 721.11
 723.80
 723.72
 720.55
 716.09
 712.68
 711.61
 710.35
 708.02
 705.42
 701.17
 698.36
 697.12
 697.61
 698.35
 697.91
 696.72
 694.85
 642.36
 595.73
 554.06
 516.55
 482.79
 452.62
 425.65
 401.39
 379.75
 360.37
 342.94
 327.44
 313.40
 301.06
 290.15
 280.34
 271.80
 265.02
 260.22
 257.40
 255.96
 255.26
 255.04
 255.03
 255.23
 255.61
 255.85
 256.26
 256.74
 257.06
 257.56
 258.10
 258.69
 259.22
 259.60
 259.94
 260.25
 260.42
 260.58
 260.72
 260.95
 261.15
 261.34
 261.50
 261.65
 261.89
 262.40
 262.76
 263.18
 295.47
 327.92
 358.43
 388.58
 418.73
 446.35
 470.92
 491.73
 507.45
 519.91
 494.32
 470.79
 450.11
 469.50
 485.45
 500.30
 513.97
 526.07
 537.17
 547.15
 556.14
 563.82
 570.54
 576.19
 581.77
 586.99
 591.99
 596.99
 601.79
 606.51
 611.36
 616.43
 621.48
 626.34
 630.30
 634.57
 638.11
 640.30
 641.57
 642.22
 642.69
 642.62
 641.96
 641.37
 640.43
 639.19
 638.37
 637.03
 599.93
 566.13
 535.72
 508.45
 483.80
 461.52
 441.87
 424.28
 408.06
 393.95
 381.26
 369.83
 360.05
 350.74
 343.17
 335.75
 335.68
 336.21
 349.49
 375.14
 398.92
 421.03
 441.33
 460.20
 478.58
 495.62
 511.46
 526.41
 540.67
 553.20
 565.48
 576.93
 588.24
 599.72
 610.65
 620.98
 630.88
 639.79
 648.31
 656.08
 663.28
 670.05
 676.14
 681.73
 687.16
 692.34
 696.91
 701.02
 704.91
 708.32
 711.49
 714.54
 717.09
 719.28
 721.15
 722.74
 724.06
 725.16
 725.74
 725.97
 725.77
 725.19
 723.97
 722.28
 720.25
 717.72
 714.75
 711.48
 708.03
 704.63
 700.96
 696.97
 693.17
 688.85
 684.57
 680.21
 676.19
 672.37
 668.83
 665.65
 662.69
 659.92
 657.42
 655.28
 653.35
 651.82
 650.04
 647.93
 645.94
 644.25
 643.52
 643.37
 643.43
 643.59
 643.23
 643.51
 644.56
 646.00
 647.90
 649.51
 651.36
 653.12
 655.61
 658.45
 661.41
 664.36
 667.23
 670.51
 674.75
 680.28
 686.75
 693.28
 699.95
 705.95
 710.86
 715.87
 721.19
 726.77
 731.89
 735.60
 738.44
 740.20
 741.18
 741.76
 741.68
 741.41
 740.47
 739.13
 737.61
 736.45
 735.51
 734.26
 732.63
 730.77
 728.89
 727.70
 727.23
 725.81
 722.43
 719.78
 715.91
 712.62
 709.75
 706.38
 703.44
 700.00
 696.90
 694.31
 691.58
 689.22
 687.60
 687.64
 689.27
 691.75
 695.37
 701.43
 707.99
 713.59
 717.73
 720.96
 720.56
 718.31
 714.38
 711.44
 707.79
 705.22
 702.09
 698.98
 696.59
 693.93
 690.73
 688.36
 685.23
 682.80
 680.12
 642.71
 643.44
 603.00
 566.60
 536.84
 507.15
 494.14
 469.02
 446.22
 425.90
 407.51
 390.96
 376.46
 363.12
 351.80
 341.22
 332.00
 323.60
 315.84
 347.86
 377.57
 404.01
 427.71
 430.04
 435.24
 455.31
 435.08
 416.87
 400.79
 386.21
 410.49
 396.14
 387.12
 411.21
 433.09
 453.28
 471.65
 486.79
 500.11
 496.10
 508.39
 519.95
 529.95
 539.86
 549.47
 558.73
 567.55
 575.00
 581.40
 586.96
 591.36
 594.93
 598.43
 601.49
 604.34
 606.11
 607.40
 584.26
 552.23
 523.61
 497.75
 474.57
 454.02
 435.51
 419.26
 404.84
 391.55
 379.60
 369.04
 359.73
 351.46
 343.81
 337.03
 331.33
 326.10
 321.69
 318.02
 314.02
 310.71
 308.34
 305.71
 304.24
 302.31
 323.08
 349.97
 374.68
 397.51
 418.76
 438.28
 456.65
 473.79
 490.11
 505.50
 519.95
 533.35
 546.02
 557.92
 569.03
 579.52
 589.47
 598.62
 607.26
 615.53
 623.48
 631.23
 638.81
 645.73
 652.26
 658.73
 664.76
 670.48
 675.93
 680.94
 685.35
 689.31
 692.98
 696.38
 699.34
 701.91
 703.92
 705.53
 706.57
 707.12
 707.00
 706.50
 705.35
 703.92
 702.13
 700.01
 697.91
 695.62
 693.16
 690.84
 688.36
 685.82
 683.34
 680.71
 678.14
 675.52
 672.77
 670.19
 667.87
 665.19
 662.77
 660.19
 657.57
 655.01
 652.41
 650.07
 647.66
 645.50
 643.45
 641.40
 640.16
 638.75
 637.27
 635.74
 634.47
 634.02
 633.42
 633.08
 632.57
 631.41
 630.87
 630.19
 630.07
 629.36
 628.92
 627.83
 628.25
 629.52
 632.67
 637.50
 642.55
 648.10
 652.69
 656.62
 661.06
 666.75
 673.78
 681.40
 688.26
 693.93
 698.94
 704.05
 710.14
 716.33
 722.49
 727.94
 732.75
 736.58
 739.22
 740.80
 742.32
 743.08
 743.08
 742.17
 740.05
 737.25
 734.22
 730.80
 727.82
 724.04
 720.43
 716.79
 713.51
 711.46
 708.91
 706.42
 703.98
 700.88
 697.99
 695.79
 693.82
 692.33
 690.90
 690.11
 689.90
 689.31
 689.18
 688.66
 688.09
 687.59
 686.63
 685.76
 684.99
 683.69
 682.62
 681.56
 656.80
 614.22
 573.70
 538.03
 504.73
 475.85
 449.87
 426.58
 405.42
 386.68
 369.01
 354.11
 340.80
 328.82
 318.24
 308.71
 300.34
 293.11
 286.40
 280.86
 279.37
 274.24
 300.81
 298.93
 295.74
 320.26
 311.34
 331.10
 352.99
 340.69
 347.72
 342.15
 362.14
 391.82
 418.34
 441.91
 463.32
 482.38
 499.95
 515.85
 529.77
 542.59
 553.93
 564.44
 574.09
 582.48
 589.74
 595.96
 600.87
 605.78
 610.20
 614.08
 617.47
 619.73
 621.95
 609.86
 605.07
 601.46
 566.52
 534.87
 506.18
 480.46
 457.22
 436.29
 416.56
 399.61
 383.65
 369.98
 357.78
 346.81
 337.23
 328.70
 321.33
 314.80
 309.32
 304.79
 305.11
 319.40
 349.66
 377.09
 402.08
 424.97
 445.98
 464.98
 482.58
 499.02
 514.32
 528.99
 543.09
 556.48
 569.33
 581.90
 594.01
 605.51
 616.46
 626.81
 636.33
 645.10
 652.69
 659.12
 664.51
 669.06
 673.05
 676.65
 679.88
 683.09
 685.98
 688.49
 690.84
 692.65
 694.09
 695.18
 695.86
 696.37
 696.54
 696.18
 695.47
 694.22
 692.60
 690.74
 688.46
 685.92
 682.93
 680.23
 677.21
 674.19
 670.97
 668.17
 665.36
 662.62
 659.96
 657.46
 655.02
 652.31
 649.68
 647.21
 644.29
 641.66
 639.20
 636.78
 634.80
 633.02
 631.02
 629.12
 627.10
 625.79
 624.41
 623.47
 622.43
 621.48
 620.73
 619.96
 618.97
 618.17
 617.05
 616.45
 616.00
 615.30
 614.77
 613.99
 612.79
 611.72
 610.44
 609.70
 609.93
 611.64
 614.07
 616.27
 618.84
 621.76
 625.38
 629.74
 635.47
 642.92
 650.33
 656.50
 661.65
 666.18
 670.36
 674.83
 679.94
 685.25
 689.72
 692.95
 694.86
 696.67
 698.90
 701.61
 703.95
 705.76
 707.48
 708.03
 707.73
 707.36
 707.22
 707.10
 707.19
 707.17
 707.45
 707.31
 707.28
 707.65
 707.58
 707.93
 707.83
 707.85
 708.56
 708.21
 707.39
 706.95
 706.25
 706.33
 706.00
 705.70
 706.03
 706.72
 708.45
 710.81
 713.13
 715.51
 717.56
 718.81
 719.53
 719.97
 720.68
 721.61
 722.05
 722.24
 721.62
 720.46
 719.01
 716.71
 714.44
 711.69
 708.83
 706.24
 703.32
 700.39
 697.95
 651.75
 609.18
 573.76
 538.78
 532.71
 510.63
 495.57
 512.51
 510.96
 519.77
 533.19
 525.27
 538.94
 551.35
 562.71
 573.84
 582.86
 590.07
 596.77
 602.59
 608.13
 613.72
 618.35
 622.81
 625.73
 627.96
 629.36
 631.02
 632.62
 633.56
 634.80
 634.92
 598.23
 602.21
 605.89
 609.40
 612.96
 615.96
 618.27
 620.74
 623.07
 624.86
 626.87
 627.99
 629.09
 629.28
 629.15
 628.94
 592.54
 558.99
 528.79
 501.51
 476.96
 454.76
 434.69
 416.72
 400.45
 386.10
 373.29
 361.66
 351.30
 341.97
 333.77
 326.59
 319.83
 313.65
 308.39
 303.15
 299.33
 303.20
 333.68
 362.81
 389.33
 413.60
 435.94
 457.04
 476.94
 496.15
 514.23
 531.81
 548.53
 564.27
 578.95
 592.55
 605.00
 616.50
 626.95
 636.15
 644.74
 652.36
 659.33
 665.49
 671.04
 676.34
 681.11
 685.40
 689.06
 691.95
 694.16
 695.74
 696.97
 697.67
 698.00
 697.80
 697.22
 696.20
 694.98
 693.48
 691.83
 689.85
 687.67
 685.10
 682.29
 679.46
 676.41
 673.37
 670.24
 667.21
 663.89
 661.00
 657.90
 654.81
 651.83
 649.05
 646.04
 643.14
 640.22
 637.50
 634.85
 631.87
 629.68
 627.51
 625.46
 623.71
 622.34
 621.31
 620.38
 619.34
 618.61
 617.95
 617.45
 616.91
 616.82
 616.73
 616.76
 617.28
 618.16
 618.54
 619.09
 619.28
 619.45
 619.40
 619.56
 619.41
 619.67
 620.00
 620.10
 620.89
 621.20
 621.98
 623.28
 624.55
 625.90
 626.81
 628.23
 629.81
 632.12
 635.41
 639.07
 642.76
 645.99
 648.49
 652.14
 657.63
 663.96
 670.37
 676.23
 681.01
 684.91
 689.32
 693.88
 698.40
 702.26
 705.93
 708.44
 709.99
 709.39
 708.55
 709.50
 709.95
 710.15
 710.34
 710.41
 709.26
 706.94
 705.24
 704.12
 702.41
 700.77
 699.29
 697.06
 694.86
 692.67
 690.40
 688.56
 686.51
 684.46
 682.41
 680.17
 678.25
 676.53
 674.97
 673.38
 671.34
 669.11
 658.49
 616.85
 588.26
 552.53
 521.48
 492.33
 467.40
 445.26
 425.83
 407.95
 399.56
 384.90
 371.21
 362.19
 350.67
 340.50
 331.55
 323.40
 316.26
 309.83
 304.15
 299.83
 295.35
 291.32
 288.28
 285.06
 281.45
 285.40
 319.36
 349.93
 376.74
 401.36
 422.93
 442.93
 460.84
 476.76
 490.88
 504.29
 515.86
 526.48
 535.83
 544.35
 552.51
 560.06
 566.15
 571.84
 576.55
 581.00
 585.20
 588.98
 592.28
 594.75
 596.58
 598.52
 599.57
 600.41
 601.27
 568.64
 539.18
 512.46
 488.31
 466.78
 446.80
 428.72
 412.75
 398.18
 386.26
 375.83
 367.15
 359.83
 353.35
 347.62
 342.65
 338.29
 346.36
 369.32
 390.09
 408.98
 426.18
 442.47
 457.62
 471.56
 484.70
 497.23
 509.41
 521.27
 532.54
 543.39
 553.95
 564.05
 573.75
 582.97
 591.68
 600.11
 607.80
 615.22
 622.20
 628.88
 635.29
 641.36
 647.12
 652.71
 657.64
 662.18
 666.36
 670.12
 673.51
 676.66
 679.19
 681.57
 683.62
 685.15
 686.44
 687.20
 687.78
 688.50
 688.85
 689.06
 689.06
 688.85
 688.47
 687.82
 686.84
 685.55
 683.80
 681.52
 678.57
 675.11
 671.50
 667.75
 663.97
 660.08
 656.17
 652.25
 648.33
 644.19
 640.47
 636.83
 633.24
 629.62
 626.06
 622.85
 619.97
 616.97
 614.27
 611.55
 609.29
 607.26
 605.34
 603.60
 601.74
 599.97
 598.37
 596.73
 595.16
 593.54
 591.89
 590.70
 589.23
 588.21
 586.99
 585.69
 584.72
 584.15
 584.13
 584.52
 585.67
 586.60
 587.14
 587.13
 588.01
 590.01
 594.41
 599.97
 606.67
 614.31
 620.18
 624.16
 628.54
 634.69
 642.32
 650.99
 659.19
 667.97
 675.77
 682.10
 687.09
 691.58
 696.72
 701.45
 705.00
 707.80
 709.72
 710.05
 709.94
 709.55
 709.80
 709.92
 708.52
 706.77
 704.89
 702.61
 700.64
 697.88
 694.79
 691.81
 688.53
 685.28
 681.95
 678.16
 675.64
 672.88
 669.69
 638.42
 599.78
 564.80
 532.42
 503.98
 477.58
 454.62
 433.16
 414.74
 398.17
 383.45
 370.41
 358.77
 348.39
 339.05
 330.85
 323.66
 317.10
 346.89
 374.90
 399.61
 422.25
 442.42
 460.48
 476.93
 491.44
 504.99
 516.90
 527.51
 536.96
 509.76
 497.28
 509.16
 520.34
 522.41
 497.47
 507.92
 518.03
 492.52
 470.47
 450.52
 432.57
 416.81
 402.73
 403.56
 424.00
 442.30
 459.07
 474.67
 488.70
 501.33
 512.70
 522.73
 532.35
 540.82
 548.24
 554.71
 560.64
 566.18
 570.76
 573.98
 577.69
 578.52
 565.77
 548.89
 521.20
 497.48
 476.03
 457.73
 440.76
 426.08
 412.87
 401.28
 391.06
 381.45
 373.11
 366.10
 359.69
 353.62
 348.46
 343.71
 339.14
 334.72
 329.95
 325.76
 321.58
 318.02
 314.72
 311.35
 308.41
 305.87
 303.59
 302.03
 312.12
 340.41
 366.57
 390.71
 413.14
 433.43
 452.69
 470.62
 487.65
 503.79
 519.11
 533.90
 547.81
 561.23
 574.21
 586.39
 597.95
 609.25
 619.63
 629.26
 638.14
 646.32
 653.49
 659.64
 664.98
 669.58
 673.62
 677.16
 680.44
 683.20
 685.58
 687.72
 689.35
 690.81
 691.73
 692.36
 692.32
 692.09
 691.38
 690.24
 688.82
 686.94
 685.04
 682.64
 680.18
 677.56
 675.10
 672.29
 669.66
 667.10
 664.49
 661.94
 659.34
 657.11
 654.90
 652.71
 650.44
 648.39
 646.55
 645.00
 643.60
 642.74
 641.87
 640.48
 639.13
 637.32
 635.99
 634.79
 634.01
 633.31
 632.78
 631.70
 630.23
 629.51
 628.66
 627.99
 627.69
 628.42
 629.68
 630.81
 631.43
 631.99
 632.29
 632.96
 634.26
 636.44
 639.79
 643.91
 648.62
 652.46
 655.11
 658.20
 662.68
 668.21
 674.59
 681.23
 687.61
 692.45
 696.00
 699.60
 704.04
 708.64
 713.18
 716.86
 719.97
 721.17
 720.16
 718.34
 717.71
 716.94
 715.24
 713.02
 710.42
 707.67
 704.11
 700.50
 696.65
 693.88
 691.59
 689.63
 688.07
 687.26
 686.84
 686.95
 687.26
 688.13
 689.12
 688.91
 688.22
 685.59
 684.14
 637.92
 596.33
 559.00
 525.30
 495.27
 468.24
 443.92
 422.42
 402.88
 385.59
 370.13
 355.92
 343.73
 332.66
 322.79
 314.11
 306.20
 299.28
 293.25
 287.63
 282.76
 278.39
 274.25
 284.22
 279.70
 274.63
 280.07
 274.76
 284.69
 284.42
 281.38
 317.74
 348.66
 376.00
 372.40
 360.86
 350.77
 353.19
 380.28
 404.95
 426.95
 446.46
 454.31
 435.48
 454.03
 470.73
 485.86
 499.27
 510.84
 521.06
 530.45
 538.81
 546.83
 553.54
 559.09
 564.78
 569.40
 573.46
 577.22
 580.89
 584.41
 586.96
 589.17
 590.95
 587.36
 564.72
 536.85
 510.76
 487.49
 466.14
 446.82
 429.44
 413.60
 399.64
 386.87
 375.59
 365.43
 356.39
 348.35
 341.41
 335.17
 329.75
 324.88
 325.89
 353.30
 377.87
 400.78
 421.81
 441.53
 459.27
 476.55
 493.29
 509.66
 526.40
 542.56
 558.00
 572.40
 585.36
 596.42
 605.28
 612.45
 618.41
 623.87
 629.58
 635.32
 640.79
 646.11
 650.80
 654.82
 658.04
 660.33
 661.80
 662.62
 662.96
 662.76
 662.19
 661.07
 659.76
 658.18
 656.67
 654.70
 653.13
 651.42
 649.68
 648.21
 646.59
 645.23
 644.11
 642.89
 641.61
 640.64
 639.98
 639.48
 639.33
 639.00
 638.60
 638.24
 638.02
 637.81
 637.53
 637.68
 637.71
 637.94
 638.15
 637.63
 637.37
 637.93
 640.04
 644.13
 649.02
 654.62
 660.86
 667.27
 674.54
 682.99
 691.99
 701.39
 710.85
 719.27
 726.04
 730.94
 736.24
 743.12
 749.91
 755.72
 759.54
 761.19
 762.57
 762.81
 762.33
 761.40
 758.26
 754.63
 750.67
 746.00
 740.40
 734.06
 728.36
 723.22
 718.50
 713.65
 710.28
 706.36
 668.22
 624.20
 584.48
 548.63
 516.37
 487.33
 460.90
 437.11
 415.90
 396.51
 379.76
 364.18
 350.26
 337.94
 326.74
 316.67
 307.90
 299.91
 292.82
 286.24
 280.61
 275.65
 271.09
 267.18
 263.76
 260.48
 256.84
 254.45
 250.91
 249.32
 247.19
 246.07
 245.16
 244.24
 243.72
 243.25
 242.82
 242.74
 242.67
 243.00
 251.80
 250.52
 250.07
 249.46
 249.51
 249.16
 248.65
 248.08
 247.87
 247.69
 247.52
 247.07
 246.86
 248.37
 248.84
 287.05
 322.75
 354.07
 383.07
 408.56
 432.20
 454.18
 473.76
 491.89
 509.10
 524.59
 538.63
 551.27
 562.54
 572.99
 582.49
 592.04
 600.64
 608.17
 614.85
 620.37
 625.43
 629.99
 633.69
 636.72
 639.45
 640.80
 640.92
 611.53
 576.48
 581.93
 555.34
 526.00
 499.00
 475.20
 453.48
 434.83
 418.25
 403.43
 389.68
 377.41
 366.17
 355.96
 347.26
 339.53
 332.78
 326.90
 321.51
 316.76
 312.39
 308.45
 305.10
 301.89
 299.20
 296.88
 294.79
 293.11
 291.60
 290.64
 289.78
 289.60
 289.44
 288.70
 288.93
 292.03
 321.43
 347.49
 371.44
 393.70
 414.73
 434.85
 453.97
 471.97
 490.07
 507.57
 524.41
 540.57
 555.51
 569.36
 582.12
 593.71
 604.44
 614.10
 623.09
 631.18
 638.56
 645.10
 650.99
 655.79
 660.12
 664.10
 667.39
 670.55
 673.40
 675.96
 678.36
 680.13
 681.31
 681.78
 681.70
 680.73
 679.06
 676.95
 674.26
 671.03
 668.03
 664.63
 661.36
 658.23
 655.10
 652.29
 649.56
 646.91
 644.32
 641.99
 639.99
 637.99
 636.29
 634.76
 633.28
 631.56
 629.90
 628.51
 627.46
 626.41
 625.37
 624.23
 624.11
 623.20
 623.08
 622.27
 621.74
 621.67
 621.70
 622.63
 623.97
 625.77
 628.20
 630.08
 632.17
 634.45
 637.41
 641.87
 647.98
 655.28
 663.35
 670.62
 676.76
 681.78
 687.00
 693.70
 700.63
 708.07
 715.56
 722.61
 728.14
 731.83
 734.75
 737.87
 740.39
 742.15
 742.93
 742.94
 743.74
 744.87
 746.18
 746.07
 743.36
 739.82
 735.84
 730.36
 724.32
 718.19
 712.27
 707.64
 703.28
 699.95
 696.96
 692.96
 690.36
 688.83
 687.34
 686.41
 684.57
 682.71
 680.94
 678.05
 675.94
 672.45
 669.80
 667.62
 656.56
 652.20
 610.58
 573.83
 541.04
 511.44
 484.79
 461.02
 439.61
 420.55
 403.90
 388.51
 374.86
 362.37
 351.43
 341.69
 332.82
 325.04
 318.14
 311.82
 307.04
 302.74
 298.66
 331.60
 359.24
 386.81
 410.53
 395.68
 418.01
 438.01
 443.71
 461.44
 470.89
 485.20
 495.58
 473.43
 478.78
 458.30
 439.87
 455.69
 440.02
 456.22
 470.89
 453.61
 469.14
 483.23
 495.91
 508.22
 518.49
 527.25
 535.02
 541.52
 547.57
 552.91
 556.92
 560.63
 564.06
 567.16
 569.74
 571.17
 573.05
 574.45
 575.90
 577.31
 578.18
 579.16
 580.25
 581.12
 581.91
 582.52
 583.37
 584.13
 584.22
 578.50
 550.65
 524.88
 501.49
 480.34
 461.01
 443.81
 427.73
 413.05
 400.15
 388.63
 401.07
 420.26
 438.14
 454.92
 470.43
 485.89
 500.80
 515.42
 529.58
 543.42
 556.28
 568.35
 579.61
 590.25
 600.33
 609.50
 618.15
 625.83
 632.65
 638.88
 644.59
 649.84
 654.85
 659.67
 663.80
 667.52
 670.77
 673.89
 676.60
 678.94
 681.15
 683.03
 684.63
 685.87
 686.58
 686.72
 686.15
 684.83
 683.15
 680.84
 678.25
 675.23
 672.00
 668.80
 665.62
 662.76
 659.89
 656.90
 654.41
 651.97
 649.67
 648.60
 647.64
 647.28
 647.35
 647.02
 646.61
 646.25
 646.33
 646.29
 646.46
 646.62
 646.76
 646.78
 646.80
 647.02
 647.22
 648.30
 648.97
 649.57
 650.21
 650.99
 652.39
 655.05
 659.05
 663.44
 667.30
 670.27
 672.84
 676.26
 681.53
 688.08
 695.57
 702.51
 708.66
 714.20
 719.98
 725.88
 732.29
 738.26
 743.34
 747.00
 748.90
 750.81
 752.93
 754.44
 754.69
 752.32
 748.59
 744.33
 739.90
 735.91
 732.02
 728.12
 724.10
 720.29
 717.36
 713.93
 709.84
 706.05
 702.15
 697.83
 651.95
 651.95
 652.36
 653.32
 655.19
 657.87
 659.68
 661.82
 663.43
 664.59
 665.93
 666.44
 667.59
 669.94
 672.04
 674.44
 676.69
 678.22
 678.90
 678.11
 676.50
 674.15
 630.24
 590.91
 555.82
 524.14
 495.82
 469.94
 446.65
 425.38
 405.54
 386.89
 371.10
 358.79
 348.01
 338.41
 329.87
 322.68
 315.81
 310.13
 317.72
 311.95
 318.05
 311.75
 306.47
 301.23
 297.50
 293.05
 290.65
 289.48
 322.23
 351.71
 379.04
 404.24
 417.91
 403.02
 421.82
 441.04
 458.73
 448.56
 431.20
 421.28
 406.16
 392.94
 380.65
 369.28
 359.45
 350.41
 342.47
 335.32
 328.89
 323.10
 317.99
 313.29
 309.26
 305.64
 301.87
 298.88
 295.50
 293.35
 291.31
 289.98
 289.18
 288.36
 287.73
 287.06
 286.65
 286.48
 286.44
 286.39
 286.45
 286.61
 286.75
 287.27
 287.45
 298.90
 327.91
 354.32
 378.39
 400.25
 420.62
 439.86
 457.98
 475.88
 493.09
 509.98
 526.58
 542.42
 557.28
 570.75
 582.98
 592.98
 601.58
 608.32
 614.29
 619.26
 624.44
 629.59
 634.53
 639.18
 643.36
 646.73
 649.25
 651.23
 652.41
 653.16
 653.25
 653.12
 652.51
 651.66
 650.69
 649.42
 647.98
 646.58
 645.43
 644.08
 642.57
 640.92
 639.13
 637.41
 635.47
 633.72
 632.25
 630.83
 629.44
 628.20
 627.68
 627.21
 626.89
 627.10
 627.19
 627.57
 628.11
 629.00
 630.20
 631.58
 633.12
 634.71
 636.54
 638.39
 639.85
 641.06
 642.26
 643.73
 645.66
 648.49
 651.34
 654.31
 657.08
 659.37
 662.33
 666.00
 670.90
 676.51
 681.86
 685.87
 688.19
 690.57
 694.51
 699.16
 703.94
 708.35
 712.31
 714.68
 715.41
 716.27
 718.55
 720.99
 723.49
 724.84
 725.76
 725.08
 723.67
 723.01
 723.11
 722.60
 721.54
 719.98
 718.08
 716.68
 714.31
 712.08
 710.47
 709.52
 708.17
 706.45
 703.01
 699.51
 695.86
 692.37
 689.33
 685.80
 682.82
 679.84
 677.15
 674.84
 672.65
 670.19
 667.77
 664.29
 654.06
 613.56
 576.90
 544.41
 514.67
 488.60
 465.04
 443.14
 424.32
 406.19
 391.07
 376.37
 364.33
 353.60
 344.24
 335.61
 328.25
 321.63
 315.76
 338.09
 366.68
 392.21
 414.09
 434.58
 453.02
 469.62
 484.66
 498.49
 511.34
 522.61
 531.85
 524.76
 534.29
 542.86
 550.17
 556.46
 561.71
 566.64
 571.37
 575.74
 579.36
 582.93
 585.83
 588.65
 590.99
 592.99
 594.39
 564.75
 544.07
 517.27
 492.74
 470.57
 450.71
 432.74
 416.66
 402.10
 388.89
 377.10
 366.29
 356.96
 348.46
 340.92
 334.23
 328.20
 322.78
 318.30
 314.17
 310.56
 307.50
 304.85
 302.57
 299.81
 318.33
 346.00
 371.30
 394.47
 415.82
 435.24
 453.21
 469.79
 485.21
 500.19
 514.17
 527.66
 540.69
 553.52
 566.07
 578.16
 589.95
 601.55
 612.50
 622.55
 632.09
 640.88
 649.09
 656.58
 663.33
 669.69
 675.12
 680.11
 684.60
 688.54
 692.19
 695.57
 698.61
 701.45
 704.00
 706.20
 708.18
 710.07
 711.96
 713.56
 714.81
 715.73
 715.85
 715.37
 714.43
 712.69
 710.42
 707.58
 704.72
 701.75
 698.77
 695.70
 692.93
 689.73
 686.76
 683.78
 680.91
 678.82
 676.53
 674.58
 672.82
 670.84
 668.96
 666.96
 665.36
 664.03
 662.63
 661.06
 659.46
 657.91
 656.42
 654.98
 654.28
 654.05
 653.85
 654.06
 654.06
 653.95
 654.26
 654.93
 656.54
 658.08
 659.77
 661.50
 663.65
 666.48
 670.03
 674.13
 678.82
 684.24
 689.51
 694.76
 699.79
 704.01
 707.31
 709.68
 712.21
 714.69
 717.02
 719.22
 720.89
 721.91
 721.31
 719.48
 717.93
 716.74
 715.97
 715.27
 714.24
 712.82
 711.04
 709.53
 707.98
 706.48
 705.13
 703.92
 702.73
 701.66
 699.79
 697.41
 695.67
 694.10
 692.69
 690.82
 689.14
 687.33
 685.69
 683.42
 681.18
 679.16
 677.55
 675.89
 674.30
 672.87
 671.79
 670.71
 669.64
 668.17
 666.86
 665.37
 663.23
 661.31
 619.48
 581.83
 548.05
 517.24
 490.12
 465.61
 443.55
 423.79
 406.21
 390.59
 383.13
 370.02
 360.52
 349.97
 340.07
 331.66
 324.00
 328.10
 358.09
 348.28
 339.95
 350.65
 374.99
 399.89
 422.10
 441.59
 459.73
 473.76
 488.68
 501.91
 513.92
 524.53
 499.38
 477.94
 488.45
 479.20
 491.48
 502.73
 511.26
 520.53
 499.28
 509.85
 519.97
 529.07
 537.26
 544.44
 550.49
 555.74
 527.97
 502.67
 480.21
 459.58
 440.73
 423.75
 408.68
 395.01
 382.81
 371.73
 361.86
 353.07
 345.06
 337.66
 331.09
 324.68
 319.51
 314.16
 310.25
 306.42
 303.48
 300.83
 298.65
 296.78
 295.41
 294.16
 293.25
 292.42
 291.98
 291.68
 291.31
 291.18
 291.06
 291.06
 291.05
 291.15
 291.43
 291.59
 292.03
 311.83
 339.34
 364.91
 388.62
 410.66
 431.59
 451.93
 471.14
 490.03
 508.82
 527.04
 544.24
 559.91
 574.92
 588.73
 601.46
 612.91
 623.12
 632.51
 641.16
 648.74
 655.47
 661.72
 667.45
 672.60
 677.44
 681.50
 685.35
 688.71
 691.84
 694.66
 696.59
 698.03
 699.53
 700.68
 701.61
 701.55
 701.09
 700.28
 698.76
 696.68
 694.21
 691.19
 688.07
 684.76
 681.69
 678.62
 675.46
 672.31
 669.68
 667.11
 664.90
 662.61
 660.15
 657.83
 655.85
 654.27
 653.04
 651.94
 650.94
 650.15
 649.03
 647.73
 646.36
 645.32
 644.79
 644.31
 644.28
 644.15
 644.24
 644.31
 644.48
 645.53
 647.18
 649.16
 651.25
 653.32
 655.29
 657.96
 661.36
 665.73
 670.85
 676.07
 681.26
 686.14
 690.72
 694.85
 698.57
 702.71
 706.84
 710.75
 713.48
 714.63
 714.37
 714.23
 714.81
 715.93
 717.13
 718.12
 718.71
 717.74
 715.16
 711.65
 709.98
 710.48
 710.64
 710.17
 709.46
 709.31
 708.58
 706.42
 704.38
 703.24
 701.92
 700.32
 698.79
 697.61
 696.85
 695.07
 692.56
 690.40
 688.16
 686.85
 685.56
 683.41
 681.87
 680.28
 679.05
 677.85
 676.56
 675.41
 673.86
 672.38
 670.84
 669.06
 666.95
 664.96
 623.76
 626.28
 628.26
 629.83
 631.95
 633.75
 635.98
 638.08
 639.97
 641.67
 643.41
 645.87
 648.88
 652.09
 655.18
 658.06
 660.26
 663.33
 666.30
 668.97
 671.17
 672.95
 674.66
 675.89
 676.60
 676.74
 676.27
 674.64
 673.18
 670.86
 668.67
 666.41
 630.97
 631.07
 594.26
 559.94
 529.54
 501.69
 476.82
 454.74
 434.56
 416.81
 401.03
 390.42
 414.28
 402.15
 424.74
 445.16
 436.65
 455.88
 472.19
 488.08
 502.37
 514.63
 526.17
 536.75
 546.58
 557.32
 564.79
 571.51
 547.06
 518.05
 492.35
 473.31
 451.78
 433.10
 415.99
 400.59
 421.93
 406.24
 392.12
 380.70
 368.93
 393.44
 415.00
 415.50
 435.95
 454.45
 470.81
 485.33
 498.09
 510.78
 521.81
 531.63
 541.16
 549.25
 557.32
 564.19
 569.87
 574.88
 579.70
 584.23
 588.50
 592.25
 595.93
 598.63
 600.87
 602.48
 603.74
 604.36
 571.63
 541.46
 514.42
 490.08
 468.17
 448.15
 429.94
 413.64
 399.08
 385.87
 374.18
 363.76
 354.59
 346.43
 338.99
 332.49
 326.14
 320.53
 315.17
 311.16
 307.04
 303.94
 301.24
 299.82
 329.94
 357.64
 382.88
 406.39
 428.05
 448.45
 467.90
 486.01
 503.41
 520.07
 536.06
 551.46
 566.31
 580.38
 593.64
 605.98
 617.28
 627.65
 636.99
 645.19
 652.47
 658.72
 664.45
 669.20
 673.58
 677.33
 680.59
 683.73
 686.46
 689.01
 691.31
 693.18
 694.86
 696.38
 697.54
 698.49
 699.34
 699.90
 700.31
 700.38
 700.14
 699.63
 698.87
 697.48
 695.83
 693.65
 691.38
 688.85
 685.96
 682.96
 680.07
 677.06
 673.96
 671.16
 668.34
 665.41
 662.17
 659.35
 656.72
 653.94
 651.25
 648.53
 645.97
 643.28
 640.75
 638.37
 636.24
 634.21
 632.49
 631.04
 629.44
 627.99
 626.49
 625.14
 623.73
 622.36
 621.12
 620.01
 618.91
 618.12
 617.11
 616.50
 615.55
 614.39
 613.45
 612.31
 611.58
 610.42
 609.58
 608.82
 608.04
 607.43
 606.59
 605.93
 605.34
 604.60
 603.44
 602.80
 602.02
 601.42
 601.28
 600.95
 600.75
 600.48
 600.13
 599.92
 599.63
 599.46
 599.42
 598.97
 598.78
 598.50
 598.35
 598.01
 597.71
 597.34
 597.11
 596.70
 596.13
 595.71
 595.24
 595.02
 594.22
 592.70
 591.03
 589.12
 584.61
 576.05
 568.44
 550.00
 524.10
 500.39
 479.45
 468.91
 474.42
 484.47
 495.03
 504.52
 513.17
 521.15
 528.44
 535.19
 541.28
 546.65
 551.38
 555.74
 560.07
 564.06
 567.86
 571.27
 574.74
 577.57
 579.91
 582.32
 584.69
 587.62
 591.56
 595.90
 600.61
 605.85
 611.57
 617.91
 625.32
 633.69
 642.42
 651.38
 660.44
 668.89
 676.51
 682.95
 688.56
 693.20
 697.48
 701.23
 704.71
 707.44
 709.10
 708.79
 706.91
 705.02
 703.72
 702.24
 699.92
 697.33
 694.59
 691.44
 688.39
 686.35
 684.32
 681.89
 680.30
 677.47
 674.72
 672.15
 669.23
 666.31
 663.38
 660.84
 659.16
 657.04
 655.34
 653.20
 650.98
 648.98
 646.89
 645.70
 644.33
 643.90
 645.01
 644.00
 642.80
 640.52
 602.17
 566.45
 535.11
 507.80
 496.32
 471.79
 452.51
 439.46
 421.71
 405.74
 391.17
 378.05
 366.44
 355.80
 346.52
 338.07
 330.56
 323.91
 317.61
 311.95
 306.96
 302.56
 299.01
 295.81
 291.42
 288.08
 285.97
 284.08
 282.37
 316.43
 347.39
 374.85
 399.26
 421.34
 436.00
 419.60
 404.84
 391.36
 379.32
 368.29
 358.46
 349.72
 341.44
 334.30
 327.67
 322.90
 317.91
 313.32
 343.49
 371.84
 397.66
 420.99
 440.99
 423.99
 408.49
 394.64
 382.08
 370.27
 360.04
 350.24
 342.12
 333.60
 327.04
 320.14
 314.43
 309.38
 305.34
 326.41
 354.87
 379.38
 402.44
 423.50
 442.75
 460.57
 476.62
 491.76
 505.78
 518.40
 529.76
 539.19
 512.47
 522.62
 532.36
 542.92
 552.73
 559.66
 530.19
 502.97
 477.67
 454.51
 433.36
 416.52
 400.57
 387.31
 375.98
 365.68
 359.01
 350.91
 343.42
 355.18
 380.16
 403.25
 423.52
 441.77
 458.69
 473.72
 478.05
 473.55
 471.29
 462.36
 443.73
 426.75
 411.58
 397.92
 385.23
 374.01
 363.70
 354.83
 346.65
 338.59
 331.83
 325.34
 320.21
 314.89
 310.90
 307.31
 304.38
 301.84
 331.66
 359.19
 384.07
 406.46
 426.62
 444.96
 461.46
 475.91
 489.22
 501.40
 511.66
 509.69
 486.33
 465.39
 446.85
 429.97
 414.77
 400.99
 388.39
