 423.49
 423.75
 423.97
 424.17
 424.56
 422.98
 422.88
 422.79
 422.81
 423.03
 423.33
 423.49
 423.75
 423.97
 424.17
 424.56
 422.98
 422.88
 422.79
 422.81
 423.03
 423.33
 423.49
 423.75
 423.97
 424.17
 424.56
 115.90
 147.01
 175.11
 200.20
 222.98
 243.38
 261.64
 278.08
 292.87
 306.28
 318.25
 328.93
 338.54
 347.18
 355.06
 362.06
 368.35
 374.12
 379.21
 383.78
 387.91
 391.62
 394.95
 397.96
 400.66
 403.10
 405.29
 407.36
 409.12
 410.71
 412.14
 413.53
 414.77
 415.90
 416.91
 417.82
 418.63
 419.47
 420.02
 420.72
 421.35
 421.71
 422.04
 422.34
 422.60
 422.94
 423.25
 423.42
 423.68
 423.81
 424.03
 424.23
 424.41
 424.57
 424.61
 424.75
 424.87
 424.99
 424.99
 425.09
 425.08
 425.17
 425.25
 425.33
 425.40
 425.46
 425.41
 425.37
 425.33
 425.30
 425.47
 425.52
 425.57
 425.51
 425.56
 425.61
 425.55
 425.59
 425.53
 425.58
 425.52
 425.47
 425.42
 425.38
 425.34
 425.31
 425.38
 425.34
 425.31
 425.27
 425.45
 425.40
 425.36
 425.33
 425.29
 425.36
 425.33
 425.39
 425.36
 425.32
 425.29
 425.36
 425.42
 425.38
 425.44
 425.50
 425.45
 425.40
 425.36
 425.53
 425.47
 425.53
 425.57
 425.62
 425.76
 425.78
 425.70
 425.63
 425.77
 425.79
 425.91
 425.92
 425.83
 425.75
 425.57
 425.51
 425.56
 425.61
 425.65
 425.68
 425.61
 425.75
 425.78
 425.80
 425.72
 425.65
 425.68
 425.71
 425.64
 425.68
 425.81
 425.83
 425.85
 425.96
 425.87
 425.78
 425.80
 425.82
 425.84
 425.86
 425.87
 425.88
 425.99
 425.99
 426.00
 425.80
 425.72
 425.84
 425.86
 425.77
 425.70
 425.73
 425.75
 425.78
 425.80
 425.72
 425.85
 425.86
 425.98
 425.88
 425.79
 425.81
 425.83
 425.85
 425.76
 425.79
 425.91
 426.02
 426.22
 426.19
 426.27
 426.25
 426.12
 426.21
 426.09
 426.18
 426.26
 426.14
 426.22
 426.10
 426.09
 426.08
 426.07
 426.17
 426.15
 426.13
 426.02
 426.02
 425.82
 425.84
 425.85
 425.87
 425.88
 425.79
 425.71
 425.74
 425.67
 425.80
 425.92
 425.83
 425.85
 425.76
 425.88
 426.00
 426.00
 426.00
 426.10
 426.09
 426.18
 426.26
 426.33
 426.30
 426.27
 426.14
 426.23
 426.31
 426.28
 426.15
 426.03
 426.03
 425.93
 425.93
 426.04
 426.14
 426.02
 426.02
 426.12
 426.21
 426.59
 427.03
 427.72
 428.95
 429.96
 432.06
 434.96
 438.76
 443.48
 449.14
 455.22
 461.10
 466.99
 472.29
 476.86
 481.18
 484.06
 486.75
 488.38
 489.54
 489.49
 488.84
 487.75
 486.18
 484.76
 482.68
 481.32
 479.68
 478.22
 476.99
 475.79
 474.92
 474.12
 473.91
 474.32
 475.29
 476.56
 477.60
 478.64
 479.08
 480.27
 480.94
 481.95
 483.75
 485.58
 487.82
 490.24
 492.52
 494.66
 496.40
 498.06
 499.35
 500.32
 500.78
 501.01
 500.71
 500.04
 498.93
 497.24
 495.61
 493.75
 491.88
 489.79
 487.61
 485.25
 482.82
 480.64
 478.28
 475.65
 473.69
 471.62
 469.56
 467.60
 466.04
 464.44
 462.99
 461.39
 459.85
 458.57
 454.51
 453.76
 449.98
 448.59
 447.43
 443.78
 443.71
 441.04
 441.23
 439.01
 438.91
 438.22
 438.40
 438.76
 437.28
 437.85
 437.87
 438.28
 438.35
 438.52
 438.87
 438.68
 439.11
 439.30
 439.67
 439.70
 439.93
 440.44
 440.60
 440.94
 441.14
 441.43
 440.99
 440.79
 440.61
 438.55
 438.79
 438.31
 438.28
 437.65
 436.79
 437.11
 435.30
 435.87
 435.18
 435.56
 435.81
 436.33
 437.19
 437.67
 438.31
 438.58
 439.52
 440.67
 441.30
 442.07
 442.46
 442.72
 442.55
 439.09
 436.88
 435.99
 434.69
 432.92
 431.83
 430.35
 429.81
 428.53
 426.78
 428.00
 426.80
 425.72
 424.95
 426.75
 428.18
 429.26
 431.23
 432.51
 434.26
 435.33
 436.80
 438.72
 440.65
 442.38
 443.35
 444.71
 446.04
 447.64
 449.47
 450.72
 451.85
 452.27
 452.64
 452.58
 452.12
 451.51
 451.26
 451.03
 450.43
 449.78
 446.11
 445.40
 443.26
 440.33
 440.20
 438.48
 438.63
 435.97
 436.57
 433.71
 431.34
 430.11
 428.30
 429.87
 432.78
 436.30
 440.67
 446.00
 451.50
 456.55
 462.30
 467.47
 472.42
 477.08
 481.27
 485.54
 489.39
 493.05
 496.35
 499.71
 502.64
 505.08
 507.57
 509.51
 511.46
 513.41
 515.37
 517.34
 519.20
 521.08
 522.07
 523.17
 523.75
 524.47
 524.83
 525.14
 525.93
 526.44
 527.19
 528.07
 528.57
 529.31
 529.78
 530.50
 531.25
 531.73
 532.25
 532.73
 533.26
 533.53
 533.98
 534.08
 534.37
 534.53
 534.58
 534.82
 534.84
 534.96
 534.96
 534.86
 534.88
 534.59
 534.43
 534.09
 533.98
 533.78
 533.80
 533.92
 534.03
 534.43
 534.88
 535.60
 536.64
 538.07
 539.87
 541.88
 544.39
 547.05
 550.15
 553.73
 557.36
 561.22
 565.10
 569.19
 573.17
 577.45
 581.71
 586.14
 590.72
 595.25
 599.93
 604.03
 608.33
 612.40
 616.16
 619.94
 623.45
 627.00
 630.40
 633.66
 637.00
 640.00
 643.20
 646.28
 649.25
 652.22
 655.00
 657.80
 660.62
 663.26
 665.53
 667.88
 669.89
 671.80
 673.52
 674.97
 676.47
 677.43
 678.38
 679.04
 679.84
 680.36
 680.82
 681.44
 681.79
 682.22
 682.49
 682.84
 683.06
 683.35
 683.72
 683.85
 684.06
 684.26
 684.23
 684.01
 683.81
 683.53
 682.87
 682.09
 680.88
 679.49
 678.04
 676.24
 674.11
 671.60
 669.14
 666.43
 663.78
 660.91
 657.82
 654.93
 651.74
 648.77
 645.69
 642.72
 639.85
 636.96
 634.47
 631.62
 628.96
 626.06
 623.36
 620.62
 618.16
 615.74
 613.17
 611.15
 609.04
 607.13
 605.22
 603.30
 601.77
 600.39
 599.35
 598.42
 597.77
 597.20
 596.78
 596.60
 596.54
 596.79
 596.71
 596.64
 596.77
 596.90
 597.51
 598.46
 599.61
 600.95
 602.65
 604.49
 606.44
 608.80
 611.42
 614.77
 618.80
 623.92
 629.43
 634.98
 640.98
 647.39
 654.95
 662.25
 669.83
 677.14
 684.53
 691.48
 697.73
 703.46
 708.41
 713.47
 718.32
 722.69
 726.62
 729.96
 732.36
 733.33
 732.89
 730.90
 727.71
 723.24
 718.32
 712.29
 705.96
 699.26
 692.64
 684.87
 677.39
 669.75
 665.27
 659.54
 654.39
 648.45
 612.61
 580.55
 551.79
 525.91
 502.32
 481.49
 463.04
 446.54
 432.68
 419.91
 408.32
 397.19
 387.77
 379.59
 372.03
 380.43
 374.39
 394.15
 405.83
 422.05
 436.65
 447.08
 459.67
 470.51
 481.36
 491.32
 500.59
 509.03
 516.63
 523.66
 529.60
 534.94
 539.54
 542.89
 546.00
 548.20
 550.08
 550.77
 551.09
 527.99
 506.39
 487.75
 471.07
 456.07
 442.56
 430.40
 419.56
 409.81
 400.93
 392.93
 385.74
 379.27
 373.54
 368.49
 363.94
 359.74
 356.17
 352.85
 349.97
 347.37
 345.23
 343.51
 341.76
 340.38
 339.04
 338.04
 337.34
 336.70
 336.43
 335.39
 335.25
 335.03
 334.72
 334.75
 334.58
 343.12
 357.91
 371.72
 388.44
 402.80
 416.22
 428.40
 439.36
 449.22
 458.00
 466.40
 473.66
 480.69
 486.92
 492.83
 498.15
 503.03
 507.93
 512.24
 516.51
 520.46
 524.32
 528.28
 532.06
 536.05
 539.85
 543.66
 547.79
 552.12
 556.60
 561.14
 565.93
 570.84
 576.05
 581.55
 587.09
 592.88
 598.59
 604.04
 609.33
 614.60
 619.74
 624.76
 629.69
 634.42
 638.78
 642.90
 646.71
 650.44
 653.89
 657.31
 660.47
 663.43
 665.98
 668.39
 670.75
 672.77
 674.80
 676.42
 678.17
 679.66
 681.09
 682.58
 683.62
 684.76
 685.79
 686.71
 687.44
 688.09
 688.68
 689.01
 689.41
 689.67
 689.80
 689.72
 689.55
 689.60
 689.54
 689.58
 689.52
 689.37
 689.04
 688.63
 688.37
 687.83
 687.45
 687.00
 686.70
 686.13
 685.52
 684.97
 684.17
 683.55
 682.90
 682.11
 681.20
 680.28
 679.45
 678.41
 677.36
 676.03
 674.73
 673.25
 671.73
 670.25
 668.43
 666.59
 664.63
 662.66
 660.60
 658.34
 656.10
 653.79
 651.61
 649.35
 646.92
 644.33
 641.59
 638.93
 636.14
 633.43
 630.78
 628.41
 626.06
 623.76
 621.68
 619.61
 617.65
 615.99
 614.19
 612.57
 611.01
 609.81
 608.53
 607.48
 606.43
 605.69
 604.92
 604.53
 604.07
 603.47
 603.12
 602.51
 601.96
 601.56
 600.90
 600.51
 599.96
 599.67
 599.50
 599.65
 600.08
 600.78
 601.80
 602.72
 603.75
 604.67
 605.71
 607.03
 608.13
 609.42
 610.58
 611.82
 613.24
 614.81
 616.83
 619.15
 621.63
 623.67
 625.90
 628.11
 630.40
 632.86
 636.18
 640.66
 645.59
 651.33
 656.90
 661.71
 665.74
 669.36
 673.13
 677.22
 681.69
 686.42
 691.38
 696.04
 700.14
 704.33
 707.39
 709.25
 710.63
 710.97
 710.67
 709.00
 705.90
 701.21
 695.09
 688.38
 680.44
 673.60
 664.84
 627.26
 593.03
 562.03
 534.62
 510.26
 516.74
 517.46
 512.72
 491.54
 472.29
 454.66
 439.09
 424.89
 412.20
 400.88
 390.89
 382.70
 374.53
 367.48
 360.33
 354.70
 349.63
 345.16
 341.15
 340.93
 336.94
 333.95
 331.35
 328.92
 326.92
 325.33
 323.50
 322.05
 320.84
 319.36
 318.52
 318.07
 321.06
 325.16
 348.84
 370.46
 390.01
 407.81
 424.03
 438.73
 452.25
 464.33
 475.70
 485.53
 494.27
 502.15
 509.23
 515.51
 520.56
 525.20
 528.48
 531.63
 534.37
 536.53
 537.68
 539.21
 538.19
 525.87
 504.58
 485.43
 468.98
 453.98
 440.59
 428.33
 417.49
 407.65
 398.88
 390.89
 383.70
 377.13
 371.22
 366.30
 361.37
 357.03
 353.43
 350.09
 347.08
 344.37
 342.13
 339.42
 337.48
 335.83
 334.35
 333.21
 331.99
 331.09
 329.58
 328.72
 328.15
 327.54
 327.08
 326.47
 326.13
 325.71
 325.44
 325.20
 324.88
 324.79
 324.51
 324.46
 324.31
 324.38
 324.44
 324.40
 324.56
 324.60
 324.84
 325.16
 337.84
 348.06
 356.55
 374.50
 391.65
 407.18
 421.56
 434.51
 446.46
 457.61
 467.85
 477.57
 486.41
 494.87
 503.08
 511.27
 519.35
 527.31
 535.38
 543.34
 551.71
 559.94
 568.04
 576.54
 584.89
 593.10
 601.19
 609.17
 616.85
 624.07
 630.96
 637.36
 643.63
 649.06
 654.06
 658.55
 662.50
 666.15
 669.23
 672.01
 674.31
 676.38
 678.14
 679.63
 681.06
 682.26
 683.43
 684.39
 685.25
 686.02
 686.62
 687.26
 687.63
 687.97
 688.07
 688.17
 688.25
 688.22
 688.10
 687.69
 687.52
 687.17
 686.55
 686.00
 685.40
 684.46
 683.31
 682.18
 680.66
 679.00
 677.20
 675.28
 673.05
 670.84
 668.26
 665.63
 662.87
 660.08
 657.08
 654.07
 650.86
 647.97
 645.28
 642.55
 639.79
 637.22
 634.69
 632.02
 629.62
 627.16
 624.74
 622.47
 620.22
 618.00
 615.80
 613.52
 611.37
 609.33
 607.50
 605.55
 603.59
 601.53
 599.68
 597.91
 596.22
 594.60
 592.94
 591.55
 590.09
 588.68
 587.21
 585.99
 584.69
 583.52
 582.47
 581.32
 580.39
 579.45
 578.51
 577.76
 576.98
 576.28
 575.15
 574.34
 573.41
 572.66
 572.00
 571.10
 570.39
 569.45
 568.80
 568.32
 567.99
 567.59
 567.13
 567.12
 566.81
 566.63
 566.56
 566.61
 566.65
 566.28
 566.05
 565.55
 565.29
 564.86
 564.38
 564.04
 563.54
 563.28
 562.95
 562.76
 562.38
 562.44
 562.90
 563.61
 564.85
 566.36
 568.13
 570.01
 572.21
 575.29
 579.46
 585.12
 591.40
 598.16
 604.85
 611.36
 618.23
 625.40
 633.86
 642.68
 652.01
 661.61
 670.95
 679.25
 686.13
 692.11
 698.00
 703.60
 709.14
 713.93
 718.14
 720.92
 722.23
 721.01
 717.71
 712.24
 706.01
 699.11
 692.60
 687.64
 682.88
 679.09
 674.58
 668.52
 663.27
 657.54
 652.79
 647.11
 640.30
 635.07
 629.16
 623.35
 618.41
 612.77
 589.59
 586.63
 559.17
 558.15
 558.44
 559.39
 562.05
 565.75
 569.57
 574.92
 581.22
 588.50
 595.65
 602.59
 608.53
 613.38
 617.44
 619.99
 620.99
 621.40
 621.56
 621.70
 622.63
 624.27
 626.14
 627.13
 628.31
 629.08
 630.17
 631.36
 630.92
 627.83
 624.05
 619.24
 615.02
 611.32
 607.68
 604.32
 600.68
 596.92
 592.82
 589.24
 562.82
 538.94
 517.34
 497.91
 480.62
 487.36
 493.92
 499.93
 505.33
 510.60
 515.54
 520.09
 523.98
 527.48
 530.43
 533.29
 536.16
 538.64
 541.08
 542.87
 544.58
 546.23
 547.40
 548.06
 548.66
 549.29
 549.66
 549.90
 549.91
 549.02
 548.91
 548.92
 548.63
 548.77
 549.39
 549.65
 550.09
 550.48
 551.53
 553.18
 555.16
 557.34
 559.11
 561.50
 563.15
 564.63
 566.67
 568.20
 569.18
 569.06
 568.36
 567.42
 566.68
 565.61
 564.05
 562.55
 560.79
 559.01
 557.61
 556.15
 555.23
 553.41
 552.47
 551.22
 549.90
 530.01
 510.51
 492.86
 476.87
 462.49
 449.64
 438.17
 427.66
 418.49
 410.14
 403.03
 396.42
 390.38
 385.04
 380.14
 375.73
 371.85
 368.57
 365.41
 362.77
 360.39
 358.15
 356.24
 354.51
 353.06
 351.06
 349.75
 348.78
 347.80
 347.12
 346.81
 346.63
 349.86
 362.28
 378.55
 393.39
 406.45
 418.51
 429.76
 440.18
 449.76
 458.49
 466.64
 473.98
 481.08
 487.67
 494.10
 500.19
 506.37
 512.34
 518.20
 523.98
 529.78
 535.61
 541.44
 547.20
 553.08
 558.87
 564.99
 570.89
 577.10
 583.39
 589.55
 596.09
 602.28
 608.56
 614.70
 620.83
 626.65
 631.88
 636.89
 641.41
 645.56
 649.31
 652.58
 655.52
 657.97
 660.57
 662.61
 664.65
 666.39
 668.05
 669.54
 670.89
 672.10
 672.99
 673.89
 674.60
 675.24
 676.02
 676.52
 676.86
 677.18
 677.26
 677.23
 677.41
 677.47
 677.52
 677.67
 677.40
 677.26
 677.04
 676.83
 676.65
 676.78
 676.51
 676.16
 675.94
 675.35
 674.71
 674.04
 673.14
 672.42
 671.38
 670.64
 669.68
 668.61
 667.75
 666.57
 665.62
 664.66
 663.89
 663.00
 662.30
 661.47
 660.62
 660.26
 659.63
 658.97
 658.37
 657.64
 656.87
 655.79
 654.71
 653.44
 651.89
 650.20
 648.28
 646.55
 644.60
 642.64
 640.78
 638.70
 636.83
 634.55
 632.49
 630.24
 628.42
 626.38
 624.44
 622.09
 619.88
 617.80
 615.62
 613.75
 611.78
 609.70
 607.53
 605.38
 603.44
 601.30
 599.57
 597.31
 595.28
 593.25
 591.03
 588.92
 586.63
 584.77
 582.89
 581.40
 579.96
 578.37
 576.93
 575.54
 574.38
 572.94
 571.85
 570.86
 569.88
 569.29
 568.76
 568.89
 569.20
 569.98
 571.08
 572.47
 574.22
 576.00
 578.40
 580.76
 583.59
 587.03
 591.22
 596.00
 601.20
 607.18
 613.66
 620.00
 626.70
 633.83
 641.74
 649.77
 657.89
 665.70
 673.73
 680.46
 686.01
 690.81
 694.23
 697.81
 700.13
 701.11
 700.20
 696.78
 691.40
 683.76
 674.79
 665.31
 657.58
 649.62
 641.46
 635.91
 630.62
 624.96
 619.86
 615.68
 611.01
 607.61
 604.25
 601.82
 599.94
 598.25
 596.22
 592.90
 589.01
 584.11
 559.20
 536.38
 516.34
 519.41
 521.07
 504.16
 507.14
 509.93
 513.04
 516.13
 519.02
 521.92
 524.03
 525.82
 527.44
 529.40
 530.76
 532.38
 534.24
 534.82
 535.74
 536.16
 536.75
 537.17
 538.25
 539.73
 540.96
 542.36
 543.32
 544.09
 544.68
 545.11
 545.40
 545.36
 545.13
 544.31
 543.58
 542.52
 541.37
 540.23
 538.51
 524.56
 507.00
 491.60
 477.14
 469.73
 457.56
 446.70
 436.63
 428.97
 427.57
 436.81
 445.43
 452.99
 460.09
 466.58
 473.32
 479.79
 485.41
 490.77
 494.99
 498.79
 501.51
 504.26
 506.74
 508.86
 509.78
 493.40
 478.86
 465.17
 453.66
 443.39
 434.15
 426.44
 418.99
 428.69
 437.12
 445.11
 453.00
 460.40
 467.26
 473.43
 479.39
 484.55
 489.00
 494.20
 499.08
 503.87
 508.38
 512.54
 515.89
 518.60
 520.94
 523.15
 525.03
 526.23
 526.21
 526.09
 525.48
 525.33
 510.40
 494.76
 480.18
 467.26
 458.14
 447.62
 438.16
 429.14
 421.33
 414.20
 407.68
 401.81
 396.53
 391.58
 387.32
 383.49
 380.14
 377.32
 374.69
 372.42
 369.68
 367.41
 366.17
 364.95
 364.26
 363.53
 363.08
 372.67
 386.60
 399.44
 411.40
 422.16
 432.34
 441.21
 449.19
 456.17
 462.65
 468.59
 474.03
 479.73
 485.55
 491.60
 497.74
 504.06
 510.76
 517.58
 524.72
 532.25
 539.93
 547.73
 555.36
 563.22
 571.00
 578.70
 586.13
 593.52
 600.77
 607.69
 614.32
 620.59
 626.73
 632.36
 637.62
 642.96
 647.36
 651.43
 655.18
 658.47
 661.22
 663.80
 666.22
 668.50
 670.45
 671.90
 673.31
 674.78
 675.90
 677.01
 678.21
 679.09
 679.88
 680.49
 680.94
 681.35
 681.71
 681.84
 682.16
 682.24
 682.42
 682.68
 682.51
 682.66
 682.49
 682.34
 681.91
 681.62
 681.56
 681.10
 680.99
 680.49
 680.24
 679.52
 679.07
 678.46
 677.81
 677.03
 675.93
 674.84
 673.55
 672.30
 670.67
 668.90
 667.11
 665.20
 663.58
 661.72
 659.85
 658.06
 656.36
 654.52
 652.87
 651.08
 649.07
 647.17
 645.35
 643.42
 641.57
 639.52
 637.76
 635.69
 633.62
 631.86
 629.77
 628.09
 626.08
 624.28
 622.65
 620.98
 619.69
 618.42
 617.38
 616.34
 615.30
 614.07
 612.77
 610.89
 608.90
 606.71
 604.54
 602.59
 600.43
 598.68
 597.02
 595.41
 593.87
 592.09
 590.58
 589.12
 587.91
 587.22
 586.59
 586.34
 585.90
 585.51
 585.36
 585.72
 586.35
 587.42
 588.68
 590.01
 591.61
 593.15
 594.63
 595.87
 597.18
 599.36
 601.73
 604.65
 607.69
 611.22
 614.90
 618.91
 623.92
 629.23
 634.60
 640.14
 645.83
 651.75
 657.77
 663.69
 669.12
 672.01
 674.81
 677.03
 678.33
 678.29
 677.86
 676.38
 674.64
 671.28
 666.45
 660.80
 654.02
 647.12
 640.91
 636.82
 632.14
 627.42
 622.88
 618.69
 613.62
 608.96
 604.66
 599.30
 594.97
 591.07
 588.66
 586.60
 582.74
 578.46
 575.82
 574.14
 571.82
 548.24
 526.72
 507.04
 489.64
 474.08
 460.57
 448.51
 437.86
 428.07
 419.47
 414.82
 426.14
 436.52
 445.67
 453.80
 461.62
 468.46
 474.82
 480.43
 485.49
 489.84
 491.26
 476.73
 463.66
 451.79
 441.21
 431.69
 423.12
 415.51
 408.36
 402.32
 396.59
 391.63
 387.27
 383.24
 379.72
 376.35
 373.41
 370.87
 368.58
 366.62
 364.76
 363.19
 361.27
 360.14
 359.33
 358.49
 357.84
 357.26
 356.93
 355.34
 355.11
 355.10
 355.09
 355.08
 354.97
 370.17
 385.06
 397.85
 409.67
 420.60
 430.54
 439.48
 447.54
 454.98
 461.48
 467.14
 472.42
 477.08
 481.37
 485.13
 488.32
 491.29
 493.86
 496.27
 498.75
 500.97
 502.77
 504.90
 506.21
 507.59
 509.03
 510.63
 512.26
 513.74
 515.46
 516.72
 518.04
 519.14
 520.13
 521.31
 522.18
 522.86
 522.88
 522.79
 522.81
 522.53
 522.38
 522.04
 521.74
 521.86
 521.58
 521.32
 520.59
 520.13
 519.11
 502.80
 488.12
 474.01
 462.11
 451.30
 441.57
 432.91
 424.82
 417.64
 410.57
 404.72
 399.45
 394.50
 390.15
 386.24
 382.71
 379.04
 376.04
 373.43
 370.99
 368.89
 367.00
 365.40
 363.96
 362.67
 361.70
 360.73
 360.16
 359.84
 359.86
 362.07
 376.36
 389.53
 401.57
 412.62
 422.66
 431.69
 439.92
 447.43
 454.29
 461.06
 467.05
 472.85
 478.46
 484.22
 490.19
 496.07
 502.07
 508.06
 514.35
 520.62
 526.96
 533.36
 539.63
 546.16
 552.35
 558.41
 564.27
 570.14
 575.93
 581.34
 586.70
 591.73
 596.86
 601.67
 606.31
 611.18
 615.86
 620.17
 624.35
 628.72
 632.65
 636.38
 640.04
 643.54
 646.79
 649.61
 652.35
 654.81
 656.93
 659.14
 660.72
 662.35
 663.92
 665.42
 666.78
 667.90
 668.91
 669.62
 670.56
 670.90
 671.31
 671.68
 671.81
 672.13
 672.12
 672.31
 672.28
 672.35
 672.21
 672.09
 672.18
 672.16
 672.55
 672.79
 673.11
 673.30
 673.37
 673.54
 673.78
 674.10
 674.59
 674.53
 674.38
 674.24
 674.12
 673.91
 673.72
 673.44
 673.30
 673.07
 672.56
 672.31
 671.68
 671.11
 670.70
 670.03
 669.42
 668.58
 668.02
 667.12
 666.31
 665.38
 664.44
 663.60
 662.64
 661.87
 660.79
 659.81
 659.13
 658.11
 657.10
 655.89
 654.80
 653.52
 652.47
 651.42
 650.28
 649.05
 647.75
 646.57
 645.32
 643.98
 642.79
 641.61
 640.25
 638.92
 637.53
 635.98
 634.48
 632.93
 631.54
 630.08
 628.58
 627.02
 625.52
 624.06
 622.66
 621.19
 619.67
 617.91
 616.52
 614.86
 613.38
 611.84
 610.26
 608.73
 607.16
 605.84
 604.66
 603.89
 603.20
 602.58
 602.12
 601.31
 600.68
 599.61
 598.55
 597.50
 596.45
 595.40
 594.46
 593.82
 593.13
 592.82
 592.54
 592.58
 593.13
 593.61
 594.15
 594.74
 595.46
 596.22
 597.40
 598.76
 600.28
 602.25
 604.03
 605.92
 607.63
 609.67
 611.90
 614.91
 618.52
 622.77
 627.49
 632.24
 636.52
 639.97
 642.87
 646.18
 649.36
 652.73
 655.95
 658.76
 660.48
 661.24
 661.01
 659.61
 657.75
 654.87
 650.79
 646.71
 642.34
 638.00
 632.30
 626.77
 620.70
 615.13
 610.31
 605.88
 603.29
 600.86
 598.88
 596.39
 593.15
 589.64
 587.17
 586.46
 585.61
 585.05
 585.74
 585.57
 586.91
 588.42
 589.88
 591.49
 591.44
 590.90
 589.41
 587.07
 584.66
 582.19
 577.57
 553.62
 532.26
 513.23
 515.21
 519.79
 525.31
 532.18
 540.36
 549.72
 559.25
 568.73
 577.75
 586.38
 594.64
 602.08
 608.67
 614.30
 618.67
 621.20
 623.18
 623.17
 621.85
 619.16
 615.85
 611.86
 607.78
 604.10
 599.89
 596.30
 592.57
 588.51
 584.36
 580.53
 576.77
 573.60
 570.04
 566.43
 562.69
 540.52
 521.17
 503.35
 487.72
 491.24
 476.52
 463.67
 451.80
 441.32
 431.99
 423.79
 415.21
 408.49
 415.94
 408.05
 415.44
 414.30
 424.67
 432.40
 439.56
 447.11
 453.99
 460.10
 465.69
 470.82
 476.14
 480.22
 484.00
 487.60
 491.14
 494.33
 497.49
 500.64
 503.38
 506.14
 509.43
 512.28
 515.26
 518.23
 520.81
 522.33
 524.19
 526.17
 527.86
 530.47
 531.42
 532.88
 533.19
 533.37
 532.94
 532.84
 532.86
 531.27
 529.85
 529.36
 528.62
 528.36
 528.13
 527.91
 528.32
 529.09
 530.78
 532.30
 534.67
 536.91
 538.31
 540.08
 542.87
 545.29
 546.66
 547.79
 548.61
 548.85
 548.97
 548.47
 547.82
 546.34
 545.21
 543.79
 542.11
 540.20
 538.38
 536.94
 534.95
 533.15
 530.94
 529.24
 526.82
 525.34
 508.40
 493.46
 479.12
 466.80
 455.82
 445.74
 436.87
 428.58
 421.62
 415.06
 409.15
 403.94
 399.24
 395.12
 391.21
 387.99
 385.29
 382.66
 380.59
 378.43
 376.79
 379.51
 387.96
 399.56
 410.31
 420.08
 429.17
 437.65
 445.59
 452.93
 460.24
 466.91
 473.52
 480.37
 486.83
 493.35
 499.41
 505.47
 511.23
 517.30
 523.27
 529.25
 535.52
 541.57
 547.81
 554.23
 560.71
 567.24
 573.81
 580.43
 586.99
 593.49
 599.74
 605.87
 611.78
 617.30
 622.77
 627.79
 632.61
 637.05
 641.35
 645.01
 648.41
 651.37
 654.13
 656.52
 658.47
 660.22
 661.90
 663.21
 664.49
 665.54
 666.59
 667.53
 668.37
 668.94
 669.54
 670.39
 670.75
 671.17
 671.76
 671.78
 672.10
 672.19
 672.37
 672.34
 672.50
 672.35
 672.12
 672.21
 672.08
 671.88
 671.69
 671.52
 671.07
 670.76
 670.18
 669.47
 668.92
 668.03
 667.33
 666.29
 665.26
 664.24
 663.11
 662.10
 660.99
 660.19
 659.37
 658.54
 657.58
 656.92
 656.53
 655.98
 655.38
 654.94
 654.45
 654.20
 654.18
 653.96
 653.67
 653.50
 653.35
 653.22
 653.19
 652.97
 653.08
 652.87
 652.48
 652.13
 651.52
 650.97
 650.47
 649.72
 648.75
 647.88
 647.09
 646.08
 645.27
 644.25
 643.62
 642.66
 641.79
 640.91
 639.92
 639.13
 638.12
 637.61
 636.54
 635.59
 634.73
 633.66
 632.89
 631.90
 630.91
 630.02
 629.02
 627.82
 626.64
 625.57
 624.31
 623.48
 622.13
 620.92
 619.53
 618.28
 616.95
 615.55
 614.20
 612.58
 610.92
 609.33
 607.60
 605.94
 604.34
 602.81
 601.13
 599.21
 597.19
 595.57
 593.82
 592.13
 590.72
 589.15
 587.63
 585.97
 584.27
 582.85
 581.36
 580.33
 579.59
 578.63
 577.77
 576.59
 575.53
 574.48
 573.93
 573.54
 573.49
 573.84
 574.05
 574.35
 574.61
 575.25
 576.63
 578.66
 581.10
 583.89
 587.10
 589.99
 593.39
 597.05
 601.15
 606.03
 611.43
 617.29
 623.66
 629.89
 636.20
 643.28
 649.65
 655.99
 662.49
 668.84
 675.06
 680.55
 685.30
 688.07
 687.46
 684.01
 678.41
 671.67
 663.60
 653.74
 645.57
 637.91
 630.62
 622.46
 615.11
 609.10
 602.09
 596.18
 589.76
 584.19
 560.47
 538.82
 538.04
 537.84
 538.15
 538.54
 538.98
 539.58
 540.43
 541.18
 542.67
 544.10
 547.09
 551.58
 555.62
 560.36
 564.22
 568.00
 572.00
 575.80
 580.02
 583.32
 585.09
 586.48
 585.83
 584.05
 581.34
 578.31
 574.48
 571.23
 568.31
 565.48
 563.13
 561.32
 559.88
 558.40
 556.96
 555.56
 554.40
 553.96
 553.67
 553.30
 552.77
 551.79
 550.71
 549.64
 548.68
 547.51
 545.76
 544.58
 543.23
 541.80
 540.12
 538.61
 537.25
 534.72
 532.55
 515.60
 515.34
 499.90
 485.31
 487.88
 489.39
 491.95
 494.06
 496.35
 498.32
 500.19
 501.87
 502.88
 504.39
 505.85
 507.37
 508.73
 510.26
 511.63
 512.77
 514.19
 515.47
 516.33
 516.59
 517.43
 517.59
 517.73
 517.36
 502.42
 503.48
 504.83
 489.75
 476.37
 480.34
 483.50
 486.35
 488.92
 492.03
 495.02
 497.82
 501.04
 504.23
 507.21
 510.19
 513.17
 516.45
 519.61
 523.05
 525.84
 527.86
 530.27
 532.25
 533.82
 535.04
 536.13
 536.52
 535.47
 534.22
 532.90
 531.31
 529.18
 518.76
 502.38
 487.75
 474.57
 462.81
 451.83
 442.05
 433.34
 425.71
 418.84
 412.36
 406.92
 401.63
 397.07
 393.16
 389.64
 386.48
 383.03
 380.83
 378.64
 377.08
 375.67
 376.20
 381.08
 392.88
 403.99
 414.09
 423.08
 431.47
 438.93
 445.83
 452.15
 457.73
 463.06
 467.75
 472.28
 476.05
 480.05
 483.74
 487.07
 490.56
 493.90
 497.51
 500.76
 504.09
 507.58
 511.12
 514.61
 517.95
 521.35
 524.82
 528.34
 532.10
 535.79
 540.01
 544.21
 548.89
 553.70
 558.53
 563.58
 568.62
 574.16
 579.54
 585.09
 590.38
 595.84
 601.26
 606.43
 611.49
 616.34
 621.21
 625.78
 630.31
 634.68
 638.61
 642.25
 645.62
 648.76
 651.48
 654.04
 656.33
 658.40
 660.36
 661.92
 663.43
 664.79
 666.01
 667.21
 668.19
 669.17
 669.85
 670.47
 670.92
 671.33
 671.79
 672.02
 672.31
 672.48
 672.73
 672.76
 672.78
 672.81
 672.73
 672.85
 672.87
 672.88
 672.69
 672.62
 672.36
 672.02
 672.02
 671.52
 671.07
 670.46
 669.92
 669.52
 668.87
 668.38
 667.65
 667.08
 666.67
 666.21
 665.69
 665.02
 664.61
 664.05
 663.75
 663.27
 662.95
 662.65
 662.29
 661.86
 661.37
 660.93
 660.34
 659.51
 658.66
 657.59
 656.43
 654.79
 653.11
 651.20
 648.88
 646.59
 643.93
 641.44
 638.49
 635.55
 632.49
 629.44
 626.50
 623.65
 620.88
 617.99
 615.20
 612.28
 609.45
 606.70
 604.03
 601.63
 599.07
 596.66
 594.39
 592.25
 590.43
 588.59
 586.93
 585.23
 583.71
 582.54
 581.09
 579.88
 578.49
 577.54
 576.49
 575.54
 574.48
 573.14
 572.12
 570.91
 569.82
 568.64
 567.57
 566.52
 565.46
 564.42
 563.38
 562.54
 561.68
 561.12
 560.30
 559.37
 558.94
 558.54
 558.59
 558.63
 558.97
 559.27
 559.54
 560.49
 561.24
 561.62
 561.55
 561.60
 561.44
 561.30
 561.07
 560.56
 559.80
 558.52
 557.87
 557.18
 557.07
 557.36
 558.32
 559.79
 560.71
 561.64
 562.68
 563.71
 565.74
 568.56
 572.21
 576.29
 580.86
 585.67
 591.11
 596.79
 602.02
 607.61
 613.15
 619.04
 625.33
 631.70
 637.63
 642.87
 647.68
 651.31
 654.28
 655.95
 657.06
 657.55
 657.60
 656.64
 654.37
 650.24
 644.91
 639.42
 634.28
 628.85
 623.17
 617.05
 610.94
 605.45
 601.80
 598.02
 593.92
 590.63
 587.77
 585.49
 582.54
 579.19
 575.97
 573.77
 571.09
 569.28
 567.06
 564.85
 562.97
 561.57
 559.91
 557.12
 554.81
 552.83
 550.55
 548.69
 547.32
 546.09
 544.18
 542.96
 541.97
 541.17
 540.45
 540.11
 540.30
 541.57
 544.21
 547.59
 551.13
 555.62
 560.66
 566.09
 571.28
 575.65
 579.19
 581.47
 582.62
 583.16
 582.74
 582.27
 581.24
 580.12
 578.91
 576.92
 574.32
 571.29
 568.56
 565.01
 559.81
 537.72
 518.25
 500.33
 484.59
 470.74
 458.66
 448.20
 455.58
 462.42
 468.68
 474.11
 478.90
 483.41
 486.87
 473.98
 461.98
 450.78
 441.31
 432.48
 424.63
 416.56
 410.01
 403.41
 398.17
 393.85
 389.87
 386.28
 382.25
 379.33
 376.89
 374.60
 372.74
 371.07
 368.56
 367.51
 366.26
 365.43
 364.59
 364.03
 363.53
 362.97
 362.88
 361.59
 361.63
 361.57
 362.31
 363.18
 377.26
 390.03
 400.03
 410.43
 407.19
 416.97
 425.97
 419.67
 414.41
 408.17
 403.55
 399.59
 396.03
 392.63
 389.67
 387.10
 383.59
 381.43
 379.29
 377.66
 376.19
 374.67
 373.51
 372.46
 370.61
 369.55
 368.89
 368.41
 368.06
 367.86
 367.47
 367.83
 381.34
 393.61
 404.85
 414.86
 423.88
 432.09
 439.58
 446.82
 453.64
 460.28
 465.95
 471.65
 477.19
 481.97
 486.27
 490.04
 493.44
 496.90
 500.21
 503.69
 506.92
 509.53
 512.17
 514.36
 516.22
 517.60
 519.04
 519.63
 519.77
 519.69
 518.82
 518.24
 517.42
 516.68
 515.71
 514.44
 513.29
 511.16
 510.25
 509.42
 508.88
 508.09
 493.78
 480.81
 474.42
 471.48
 460.83
 450.65
 441.89
 434.20
 426.48
 420.63
 415.47
 410.52
 406.07
 402.46
 401.21
 406.49
 415.54
 423.69
 430.92
 437.73
 443.96
 449.56
 454.60
 459.54
 464.19
 468.37
 472.43
 476.39
 480.15
 483.54
 486.98
 490.58
 494.03
 497.62
 501.26
 504.73
 508.26
 511.84
 515.85
 519.87
 524.28
 528.75
 533.58
 538.62
 543.96
 549.56
 555.31
 561.37
 567.54
 574.18
 580.67
 587.10
 593.29
 599.36
 605.42
 611.08
 616.67
 622.01
 627.11
 631.89
 636.21
 640.08
 643.48
 646.73
 649.76
 652.48
 655.03
 657.13
 659.12
 660.90
 662.71
 664.04
 665.24
 666.41
 667.27
 668.15
 668.73
 669.26
 669.73
 670.06
 670.45
 670.81
 671.13
 671.41
 671.87
 672.19
 672.57
 673.01
 673.01
 673.21
 673.19
 673.07
 672.96
 672.87
 672.88
 672.89
 672.70
 672.43
 672.19
 671.87
 671.38
 671.14
 670.63
 670.27
 669.74
 669.27
 668.84
 668.36
 667.92
 667.43
 667.39
 666.85
 666.26
 665.84
 665.15
 664.64
 663.87
 663.09
 662.28
 661.45
 660.50
 659.25
 658.03
 656.83
 655.44
 654.10
 652.69
 651.22
 649.80
 648.22
 646.40
 644.76
 642.78
 640.90
 638.81
 636.53
 634.58
 632.32
 630.19
 627.87
 625.48
 623.23
 620.91
 619.02
 616.62
 614.56
 612.40
 610.26
 608.43
 606.49
 604.84
 603.06
 601.35
 599.22
 597.29
 595.17
 593.05
 591.24
 589.22
 587.60
 586.24
 584.81
 583.63
 582.47
 581.82
 581.34
 580.91
 580.42
 580.17
 579.76
 579.28
 578.95
 578.36
 578.22
 578.00
 577.30
 576.67
 575.50
 574.45
 573.41
 572.67
 572.00
 571.50
 571.55
 571.69
 571.83
 571.94
 572.65
 573.78
 575.91
 578.71
 582.04
 586.14
 589.93
 593.13
 595.82
 598.84
 603.35
 608.72
 615.55
 622.39
 629.05
 634.95
 640.65
 646.79
 652.41
 658.07
 663.16
 668.14
 672.03
 674.23
 675.40
 675.86
 675.48
 674.53
 672.68
 670.91
 668.52
 666.07
 662.96
 659.36
 656.13
 653.91
 653.12
 652.21
 652.39
 652.75
 653.38
 654.14
 654.42
 653.58
 651.32
 648.69
 645.72
 642.55
 640.79
 638.72
 637.14
 634.93
 632.74
 631.06
 626.26
 620.33
 613.60
 607.84
 601.95
 596.76
 592.98
 587.68
 584.32
 580.18
 576.97
 552.57
 528.71
 506.44
 486.10
 491.89
 497.20
 502.18
 507.06
 511.85
 516.67
 520.10
 522.89
 524.40
 525.76
 526.49
 527.04
 527.53
 526.48
 526.23
 508.01
 491.51
 476.66
 462.89
 451.10
 440.79
 434.31
 437.88
 439.29
 430.56
 422.41
 415.37
 408.93
 402.24
 397.11
 392.40
 388.36
 384.63
 381.56
 378.81
 376.33
 382.49
 395.44
 407.10
 417.59
 427.33
 437.20
 444.98
 452.18
 458.76
 464.29
 469.36
 458.32
 448.09
 438.88
 429.69
 422.42
 415.88
 410.09
 404.88
 415.10
 417.09
 425.58
 434.02
 441.62
 449.16
 455.64
 461.68
 466.71
 471.64
 475.57
 478.62
 481.65
 484.09
 485.08
 487.27
 488.95
 488.45
 490.11
 492.39
 479.46
 482.21
 470.09
 459.48
 448.93
 440.14
 447.12
 453.31
 459.98
 466.08
 472.67
 478.61
 484.65
 490.68
 495.31
 498.98
 502.08
 505.18
 507.06
 507.65
 507.89
 492.80
 494.42
 483.98
 471.28
 459.75
 448.78
 439.60
 431.34
 423.70
 416.83
 410.75
 405.28
 399.95
 395.65
 391.89
 388.60
 385.74
 383.17
 380.85
 378.76
 376.89
 375.20
 373.78
 372.40
 371.26
 370.13
 369.22
 367.80
 367.22
 380.50
 378.75
 378.07
 378.77
 390.99
 402.49
 412.94
 422.75
 431.77
 440.29
 448.27
 455.54
 462.79
 469.71
 476.74
 483.46
 490.02
 496.81
 503.53
 510.48
 517.23
 524.21
 531.29
 538.26
 545.43
 552.39
 559.55
 566.70
 573.83
 580.94
 587.85
 594.86
 601.48
 608.03
 614.13
 620.31
 625.98
 631.08
 635.78
 639.90
 643.91
 647.12
 650.21
 653.19
 655.67
 658.00
 660.00
 662.00
 663.70
 665.63
 666.97
 668.07
 669.26
 670.14
 670.82
 671.34
 672.01
 672.51
 672.86
 673.07
 673.16
 673.55
 673.69
 674.02
 674.32
 674.59
 675.13
 675.42
 675.97
 676.18
 676.46
 676.61
 676.75
 677.18
 677.36
 677.62
 677.76
 678.18
 678.37
 678.33
 678.50
 678.45
 678.60
 678.34
 678.11
 677.70
 676.83
 675.94
 674.75
 673.18
 671.16
 668.94
 666.35
 663.31
 660.18
 656.76
 653.69
 650.22
 646.90
 643.71
 640.54
 637.68
 634.81
 632.63
 630.37
 628.53
 626.98
 625.28
 623.65
 622.09
 620.88
 619.89
 618.70
 617.43
 615.89
 614.90
 613.51
 612.76
 612.58
 613.32
 614.59
 616.43
 618.59
 620.63
 622.57
 623.91
 624.92
 626.43
 628.38
 630.95
 633.25
 635.73
 637.75
 639.98
 642.38
 645.44
 649.50
 653.95
 658.55
 662.90
 666.61
 670.25
 674.42
 679.28
 684.75
 691.08
 698.27
 705.34
 710.81
 715.23
 719.70
 723.83
 727.35
 730.22
 731.59
 731.63
 728.37
 720.63
 711.47
 702.22
 693.60
 685.04
 678.14
 673.12
 668.41
 663.07
 656.86
 651.88
 647.39
 641.05
 635.34
 631.21
 627.89
 624.90
 620.91
 616.72
 612.95
 608.85
 605.47
 602.52
 599.47
 597.22
 595.00
 593.00
 590.90
 588.51
 565.26
 539.23
 516.71
 496.44
 478.29
 461.97
 472.67
 467.00
 451.70
 438.33
 427.20
 416.48
 407.33
 398.20
 393.98
 387.08
 382.37
 376.73
 371.56
 367.01
 362.70
 359.13
 356.02
 352.12
 349.51
 369.66
 387.99
 404.49
 418.84
 431.06
 419.85
 410.57
 402.61
 394.65
 388.08
 382.38
 377.14
 372.62
 368.46
 364.62
 361.35
 358.32
 355.69
 353.52
 351.47
 348.92
 347.23
 345.91
 344.51
 343.96
 344.67
 363.30
 379.57
 395.11
 409.10
 421.39
 432.55
 442.70
 440.83
 430.04
 420.84
 412.66
 405.29
 398.76
 392.59
 387.13
 382.71
 378.24
 374.62
 371.06
 368.05
 365.45
 363.00
 361.10
 357.89
 356.10
 354.59
 353.63
 352.47
 351.32
 350.49
 349.44
 348.70
 347.83
 347.34
 346.81
 346.33
 346.10
 345.99
 345.89
 345.60
 345.54
 345.59
 345.43
 345.48
 345.44
 345.69
 345.62
 345.76
 345.78
 345.61
 345.95
 345.65
 344.89
 344.70
 344.83
 345.54
 362.59
 378.73
 393.66
 407.09
 419.38
 430.74
 441.47
 451.32
 460.29
 468.96
 476.67
 483.80
 490.82
 497.64
 504.27
 509.75
 515.17
 520.05
 524.45
 527.30
 529.47
 531.13
 532.31
 533.78
 534.60
 534.74
 534.27
 515.14
 508.03
 510.03
 511.92
 494.83
 479.25
 464.92
 452.33
 440.90
 430.71
 421.64
 413.27
 405.95
 398.65
 392.69
 387.22
 381.90
 377.71
 374.04
 371.03
 367.83
 365.65
 363.88
 374.69
 389.32
 402.59
 415.13
 426.32
 436.99
 446.99
 456.69
 466.02
 474.72
 483.65
 492.48
 501.43
 510.59
 519.73
 529.16
 538.44
 548.00
 557.10
 566.09
 574.88
 582.99
 590.69
 597.92
 604.93
 611.54
 617.48
 622.84
 627.55
 632.00
 635.70
 639.13
 641.81
 644.13
 646.12
 647.61
 649.05
 650.14
 651.23
 652.01
 652.60
 653.14
 653.43
 653.69
 653.72
 653.95
 653.95
 654.16
 654.24
 654.22
 654.39
 654.36
 654.52
 654.67
 654.80
 655.02
 655.22
 655.50
 655.55
 655.59
 655.43
 655.19
 654.87
 654.18
 653.47
 652.32
 651.09
 649.58
 647.92
 646.23
 644.11
 642.09
 639.69
 637.22
 634.60
 632.04
 629.23
 626.31
 623.58
 620.62
 617.76
 614.78
 611.80
 609.12
 606.41
 603.97
 601.37
 598.94
 596.54
 594.19
 592.27
 590.34
 589.01
 587.61
 586.45
 585.40
 584.36
 583.63
 582.76
 582.49
 581.84
 581.75
 581.58
 581.32
 581.29
 580.96
 580.96
 580.57
 580.01
 579.51
 578.66
 578.09
 577.68
 577.41
 576.97
 576.68
 576.41
 576.17
 576.75
 577.28
 578.45
 579.80
 581.62
 583.66
 585.19
 587.18
 589.56
 593.30
 597.67
 603.30
 609.77
 616.70
 623.73
 630.05
 636.75
 644.37
 653.84
 664.45
 674.31
 683.38
 691.74
 699.47
 706.12
 712.91
 719.42
 725.37
 730.84
 734.85
 736.87
 736.78
 734.00
 728.40
 718.66
 709.30
 699.47
 690.92
 681.43
 671.88
 662.40
 652.46
 643.81
 611.23
 606.51
 602.56
 599.20
 596.28
 593.85
 591.27
 563.94
 539.15
 516.73
 496.26
 477.83
 461.55
 447.39
 435.06
 433.55
 423.49
 414.65
 405.78
 397.80
 390.82
 384.64
 379.28
 374.35
 370.01
 366.21
 362.19
 368.37
 364.73
 361.56
 358.81
 355.62
 354.56
 351.81
 350.03
 348.22
 346.50
 345.05
 343.65
 341.78
 340.80
 340.12
 339.51
 339.16
 339.04
 339.14
 340.13
 353.21
 371.39
 387.35
 402.32
 415.59
 427.43
 438.18
 447.27
 455.44
 459.10
 466.19
 455.77
 444.59
 434.23
 424.71
 415.64
 407.87
 400.89
 394.80
 388.72
 384.15
 379.83
 376.15
 372.63
 369.67
 367.00
 364.50
 362.65
 360.59
 359.23
 357.11
 356.00
 354.90
 353.81
 354.13
 353.11
 353.00
 351.70
 350.93
 350.34
 349.60
 349.24
 348.52
 348.17
 347.45
 347.01
 346.71
 346.13
 345.82
 345.34
 347.91
 348.21
 365.59
 380.73
 394.86
 408.57
 420.12
 432.21
 442.58
 452.93
 462.53
 471.48
 480.73
 488.46
 495.91
 501.42
 505.38
 508.24
 506.32
 490.39
 475.85
 479.46
 466.12
 454.40
 443.56
 433.71
 424.84
 416.75
 409.78
 403.50
 397.95
 392.86
 388.07
 384.26
 380.84
 377.75
 375.18
 373.16
 384.84
 397.36
 409.12
 419.61
 429.75
 439.07
 447.97
 456.47
 464.42
 472.28
 479.65
 487.29
 494.96
 502.96
 511.27
 519.64
 528.48
 537.13
 545.92
 554.42
 562.88
 571.19
 578.87
 586.69
 593.62
 600.36
 606.52
 612.57
 618.01
 623.01
 627.81
 631.83
 635.55
 638.79
 641.71
 644.34
 646.51
 648.76
 650.48
 652.13
 653.62
 654.86
 656.07
 657.06
 658.16
 658.94
 659.85
 660.56
 661.11
 661.70
 661.93
 662.23
 662.11
 661.90
 661.41
 660.77
 660.29
 659.26
 658.44
 657.29
 655.86
 654.18
 652.26
 650.33
 648.00
 645.50
 642.75
 639.77
 636.60
 633.34
 630.10
 626.59
 623.43
 619.79
 616.31
 612.68
 609.01
 605.71
 602.14
 599.03
 595.72
 592.65
 589.59
 586.63
 583.86
 580.88
 578.59
 576.03
 573.73
 571.56
 569.30
 567.47
 565.42
 563.78
 562.20
 560.68
 559.51
 558.56
 557.91
 557.02
 556.31
 555.58
 554.62
 553.76
 552.99
 552.29
 551.46
 551.31
 551.08
 550.97
 550.78
 550.60
 550.74
 550.86
 551.28
 551.25
 551.53
 551.57
 551.82
 552.53
 553.38
 555.04
 556.74
 558.86
 560.48
 561.93
 563.24
 564.51
 566.56
 568.91
 572.22
 576.09
 580.08
 584.28
 587.65
 591.48
 595.43
 600.39
 606.05
 612.45
 619.10
 625.19
 630.87
 635.59
 640.83
 646.64
 653.08
 659.57
 665.91
 672.42
 677.98
 682.98
 686.68
 689.12
 691.80
 693.12
 694.41
 694.57
 694.91
 692.62
 688.16
 683.54
 641.49
 641.34
 642.21
 642.49
 641.74
 639.86
 639.18
 636.76
 635.88
 633.59
 630.74
 596.16
 563.45
 549.90
 522.31
 530.58
 537.62
 545.16
 552.44
 558.70
 564.33
 535.70
 510.93
 487.83
 467.05
 448.95
 431.75
 416.58
 402.82
 390.84
 380.05
 370.65
 362.48
 354.93
 349.24
 342.72
 337.55
 332.69
 328.42
 324.78
 321.50
 318.85
 315.87
 313.78
 311.90
 310.31
 308.88
 307.69
 307.02
 306.12
 304.71
 304.04
 303.63
 304.37
 304.03
 305.33
 304.90
 306.81
 306.43
 306.58
 331.13
 329.01
 353.91
 375.22
 396.00
 414.10
 430.79
 446.11
 459.30
 472.47
 483.62
 494.86
 503.97
 512.68
 520.61
 527.15
 533.43
 538.29
 543.36
 547.12
 550.51
 552.96
 553.16
 553.55
 529.09
 507.28
 487.56
 469.90
 453.91
 439.52
 426.87
 415.58
 405.32
 396.19
 387.37
 380.13
 373.82
 368.14
 363.02
 358.52
 354.27
 350.24
 347.12
 344.41
 341.97
 339.77
 337.99
 336.59
 335.03
 333.83
 332.85
 332.16
 331.55
 335.79
 335.31
 355.88
 374.79
 391.61
 407.05
 420.55
 433.09
 444.28
 454.55
 463.90
 472.31
 480.38
 487.34
 494.11
 500.20
 505.98
 511.58
 516.82
 522.34
 527.50
 532.95
 538.36
 543.72
 549.35
 554.72
 560.34
 565.71
 571.44
 577.09
 582.59
 588.23
 593.60
 599.34
 604.71
 610.04
 615.13
 620.12
 625.01
 629.71
 634.14
 638.22
 642.40
 646.16
 649.34
 652.61
 655.35
 658.01
 660.31
 662.48
 664.43
 666.19
 667.97
 669.27
 670.85
 671.86
 672.88
 673.79
 674.61
 675.65
 676.38
 677.35
 678.11
 679.00
 679.80
 680.52
 681.47
 682.02
 682.52
 682.87
 683.18
 683.36
 683.53
 683.77
 683.90
 684.01
 684.11
 684.10
 683.99
 683.79
 683.61
 683.25
 682.82
 681.94
 680.95
 679.95
 678.56
 677.20
 675.68
 673.91
 671.92
 669.93
 667.84
 665.45
 663.21
 660.59
 658.13
 655.42
 652.57
 649.72
 646.64
 643.98
 640.78
 637.90
 634.71
 631.64
 628.78
 625.50
 622.55
 619.30
 616.27
 613.34
 610.31
 607.57
 604.82
 602.34
 599.90
 597.41
 595.17
 592.85
 590.77
 588.49
 586.54
 584.29
 582.06
 579.95
 577.86
 575.67
 573.50
 571.75
 569.68
 568.01
 566.41
 565.07
 564.16
 563.35
 562.71
 561.74
 561.17
 560.45
 559.80
 559.52
 558.87
 558.78
 558.31
 558.18
 558.26
 558.43
 558.69
 559.22
 560.30
 561.67
 563.50
 565.15
 567.14
 569.52
 571.77
 574.79
 578.21
 582.39
 586.85
 591.57
 596.61
 601.95
 607.45
 612.51
 617.56
 622.70
 628.13
 633.82
 639.94
 646.84
 653.46
 659.71
 665.04
 669.64
 672.97
 675.28
 677.55
 678.79
 679.81
 679.13
 677.52
 673.97
 670.07
 664.56
 660.21
 656.19
 651.37
 647.23
 642.21
 636.79
 632.21
 627.49
 623.44
 590.49
 589.95
 560.65
 534.29
 510.56
 488.40
 468.46
 451.52
 436.26
 422.14
 409.62
 398.56
 388.11
 379.89
 385.91
 404.51
 421.66
 437.20
 451.88
 464.99
 476.79
 487.41
 496.37
 504.33
 511.30
 518.47
 524.42
 529.48
 533.33
 511.90
 491.51
 473.26
 457.13
 442.52
 428.87
 417.08
 406.67
 397.31
 388.87
 381.39
 374.65
 368.98
 363.49
 358.64
 354.27
 350.45
 347.00
 343.90
 341.41
 338.17
 336.15
 334.34
 332.80
 331.42
 330.18
 329.06
 327.46
 326.71
 326.04
 325.54
 324.48
 324.13
 323.82
 323.34
 323.10
 322.99
 322.99
 323.00
 323.10
 323.19
 323.37
 322.93
 323.54
 323.78
 324.31
 324.57
 324.72
 324.65
 324.18
 324.46
 324.92
 334.03
 335.02
 355.92
 375.13
 392.42
 408.07
 422.17
 435.25
 446.92
 457.73
 467.26
 476.13
 483.92
 490.53
 496.18
 500.16
 486.64
 471.48
 457.73
 444.66
 433.29
 423.26
 414.34
 406.30
 399.17
 392.55
 386.40
 381.06
 376.25
 371.93
 368.24
 365.01
 362.01
 359.21
 356.19
 354.17
 352.25
 350.53
 349.07
 347.87
 346.58
 345.02
 344.02
 343.22
 342.70
 342.13
 341.71
 341.24
 340.42
 340.18
 340.06
 339.95
 339.96
 340.06
 340.06
 340.45
 340.31
 340.47
 340.03
 340.12
 340.41
 340.67
 341.00
 340.70
 341.33
 358.80
 375.82
 390.94
 405.04
 417.64
 429.38
 440.14
 450.12
 459.61
 468.45
 477.11
 485.19
 493.18
 500.86
 508.47
 516.02
 523.32
 530.99
 538.29
 545.76
 553.19
 560.37
 567.63
 574.67
 581.70
 588.13
 594.42
 600.58
 606.22
 611.70
 616.73
 621.75
 626.28
 630.65
 634.89
 638.90
 642.91
 646.32
 649.78
 652.81
 655.73
 658.45
 661.11
 663.70
 665.93
 668.23
 670.51
 672.56
 674.60
 676.84
 678.86
 680.47
 682.23
 683.70
 685.13
 686.42
 687.38
 688.44
 689.10
 689.79
 690.31
 690.98
 691.28
 691.65
 692.09
 692.28
 692.45
 692.20
 692.18
 692.17
 691.65
 691.08
 690.28
 689.25
 687.82
 686.24
 684.32
 682.29
 680.06
 677.35
 674.62
 671.55
 668.60
 665.44
 662.30
 659.07
 655.76
 652.58
 649.52
 646.47
 643.63
 640.46
 637.82
 634.83
 632.25
 629.43
 626.58
 623.83
 621.14
 618.33
 615.50
 612.55
 609.39
 606.45
 603.61
 600.65
 597.98
 595.48
 593.14
 590.82
 588.94
 586.95
 585.25
 583.93
 582.83
 582.15
 581.43
 580.89
 580.40
 580.06
 580.06
 579.95
 579.86
 579.67
 579.70
 579.83
 580.05
 580.64
 581.48
 583.03
 584.83
 586.85
 588.66
 590.19
 591.98
 593.98
 596.48
 598.83
 601.75
 605.37
 609.14
 613.02
 616.22
 619.70
 623.43
 627.89
 633.10
 638.29
 643.46
 647.81
 651.63
 654.77
 657.89
 661.40
 664.66
 667.40
 668.36
 667.72
 665.85
 662.56
 660.11
 657.30
 654.07
 649.76
 644.88
 638.10
 631.09
 624.68
 618.11
 612.60
 607.84
 604.35
 600.92
 598.33
 596.49
 594.55
 592.59
 589.53
 586.68
 559.81
 535.63
 514.17
 494.85
 501.16
 506.35
 510.91
 491.62
 474.46
 458.11
 444.20
 431.98
 420.78
 410.61
 401.45
 393.30
 386.07
 379.46
 373.62
 368.26
 363.53
 359.28
 355.65
 352.38
 348.65
 345.98
 343.68
 341.61
 339.95
 338.46
 337.01
 335.71
 334.64
 333.78
 332.90
 332.11
 331.60
 331.14
 330.92
 330.53
 330.18
 330.06
 329.85
 329.77
 329.59
 329.63
 328.87
 328.98
 329.28
 329.46
 329.71
 330.14
 330.33
 330.29
 331.06
 351.76
 370.78
 388.00
 403.70
 418.03
 431.23
 442.81
 453.33
 462.29
 470.06
 477.06
 464.05
 451.25
 438.72
 428.35
 418.31
 409.78
 401.90
 394.91
 388.52
 382.27
 377.04
 372.14
 368.03
 364.32
 361.09
 358.28
 355.75
 353.38
 351.24
 349.42
 347.57
 346.12
 344.71
 343.73
 342.36
 341.43
 340.88
 340.49
 340.24
 339.72
 339.15
 338.63
 338.57
 338.71
 338.64
 338.78
 338.70
 338.93
 339.04
 339.13
 339.42
 339.78
 340.20
 340.68
 341.11
 357.10
 373.79
 389.11
 403.60
 416.94
 429.75
 441.47
 452.52
 462.87
 472.68
 482.42
 491.67
 500.81
 509.43
 517.88
 526.20
 534.28
 542.35
 550.11
 557.60
 564.94
 571.95
 578.75
 585.18
 591.66
 597.79
 603.61
 609.05
 614.35
 619.51
 624.56
 629.51
 633.65
 637.79
 641.61
 645.25
 648.72
 651.75
 655.08
 657.67
 660.20
 662.48
 664.63
 666.77
 668.59
 670.53
 671.98
 673.38
 674.44
 675.60
 676.64
 677.28
 677.85
 678.36
 678.63
 678.66
 678.60
 678.74
 678.46
 678.22
 677.70
 677.03
 676.12
 675.11
 674.10
 672.99
 671.69
 670.12
 668.61
 667.15
 665.53
 663.98
 662.28
 660.65
 658.89
 657.20
 655.38
 653.54
 651.89
 650.00
 648.40
 646.36
 644.72
 642.95
 641.06
 639.35
 637.42
 635.67
 633.71
 631.84
 629.85
 627.67
 625.60
 623.54
 621.29
 618.86
 616.37
 614.03
 611.43
 608.89
 606.20
 603.78
 601.40
 598.86
 596.38
 593.84
 591.55
 589.20
 586.98
 584.58
 582.62
 580.46
 578.41
 576.67
 574.81
 573.42
 571.98
 570.58
 569.33
 567.99
 566.99
 565.69
 564.92
 563.83
 562.85
 561.86
 560.58
 559.62
 558.46
 557.81
 556.83
 556.25
 555.82
 555.34
 555.01
 554.61
 554.45
 554.30
 554.27
 554.54
 554.89
 555.50
 556.15
 557.54
 558.58
 560.02
 561.72
 563.25
 565.22
 567.10
 569.29
 571.26
 573.04
 574.63
 576.07
 578.26
 581.24
 585.21
 589.69
 594.82
 600.14
 605.33
 610.69
 615.82
 621.54
 627.29
 632.96
 637.66
 641.40
 644.46
 646.91
 649.62
 651.76
 653.48
 655.23
 655.41
 654.97
 651.87
 648.49
 644.04
 639.13
 635.12
 631.21
 627.59
 622.63
 618.57
 613.81
 610.03
 606.33
 603.69
 601.82
 599.94
 597.75
 595.47
 593.32
 592.19
 590.57
 589.12
 586.80
 585.02
 582.62
 580.36
 578.42
 576.88
 575.49
 573.74
 571.97
 570.27
 568.64
 566.88
 564.69
 562.52
 539.27
 518.24
 499.32
 482.59
 467.33
 453.70
 441.43
 430.48
 420.64
 411.77
 403.89
 396.80
 390.52
 384.77
 379.69
 375.33
 371.29
 367.66
 364.30
 361.37
 358.73
 356.56
 354.80
 352.22
 350.70
 349.23
 348.01
 346.81
 345.83
 345.14
 344.53
 343.98
 343.48
 343.03
 342.53
 342.07
 341.77
 341.49
 340.34
 340.31
 340.68
 359.91
 377.42
 393.48
 407.33
 420.20
 432.38
 443.84
 454.55
 463.80
 472.42
 480.18
 486.16
 491.24
 494.92
 498.23
 482.60
 468.14
 455.03
 443.23
 432.00
 422.30
 413.67
 405.91
 398.82
 392.43
 386.89
 381.80
 377.32
 373.19
 369.37
 365.93
 362.84
 360.06
 357.55
 355.30
 353.17
 351.35
 349.91
 348.32
 347.39
 346.35
 345.02
 344.41
 344.07
 343.87
 343.78
 344.00
 344.30
 351.17
 368.65
 384.49
 399.04
 412.54
 424.88
 436.69
 447.42
 457.78
 467.20
 476.38
 484.95
 493.05
 501.25
 508.72
 516.05
 522.94
 529.65
 535.98
 542.09
 548.18
 553.96
 559.86
 565.28
 570.65
 576.08
 581.48
 586.73
 591.96
 597.06
 601.75
 606.38
 611.04
 615.34
 619.50
 623.25
 627.03
 630.72
 634.05
 637.25
 639.92
 642.73
 644.76
 646.58
 647.92
 648.83
 649.35
 649.41
 649.37
 648.83
 648.65
 648.19
 647.77
 647.49
 647.24
 647.42
 647.58
 648.02
 648.62
 649.45
 650.61
 651.65
 652.98
 654.19
 655.67
 656.90
 658.11
 659.30
 660.47
 661.52
 662.27
 663.04
 663.64
 664.17
 664.86
 665.17
 665.55
 665.60
 665.64
 665.48
 665.13
 664.61
 663.85
 662.77
 661.19
 659.47
 657.32
 654.99
 652.59
 649.63
 646.67
 643.30
 639.97
 636.68
 633.11
 629.70
 626.03
 622.62
 619.16
 615.95
 612.75
 609.68
 606.71
 603.64
 600.87
 597.99
 595.19
 592.37
 589.63
 587.17
 584.55
 582.40
 580.16
 578.54
 577.19
 575.47
 573.92
 572.33
 570.90
 569.21
 567.49
 565.44
 563.59
 561.93
 560.44
 559.60
 558.84
 558.25
 557.83
 557.45
 557.30
 557.37
 557.43
 557.39
 557.65
 557.89
 558.10
 558.89
 559.30
 560.07
 560.56
 561.21
 561.79
 562.31
 563.08
 563.87
 565.18
 566.06
 567.56
 569.20
 570.88
 573.09
 574.98
 578.09
 581.88
 586.49
 591.94
 597.35
 602.11
 606.00
 610.10
 614.29
 619.46
 625.42
 631.77
 638.30
 644.17
 649.25
 653.12
 656.31
 658.88
 660.79
 661.91
 662.32
 661.59
 658.53
 652.68
 646.11
 637.90
 630.91
 624.72
 619.95
 614.55
 609.50
 601.75
 573.67
 548.71
 548.33
 548.60
 548.64
 548.48
 548.03
 548.13
 548.61
 548.65
 548.59
 547.83
 547.45
 546.40
 545.76
 524.78
 505.51
 487.96
 471.96
 457.66
 444.70
 433.23
 423.01
 413.80
 405.72
 398.35
 391.82
 386.03
 380.03
 375.33
 371.10
 367.49
 364.14
 361.12
 358.41
 355.77
 353.59
 351.73
 350.16
 348.84
 347.56
 346.40
 345.76
 344.99
 344.29
 343.66
 343.19
 342.67
 342.11
 341.80
 340.72
 340.44
 340.20
 340.18
 340.06
 339.96
 340.16
 339.64
 339.88
 340.09
 340.48
 340.93
 341.34
 342.11
 360.40
 368.56
 384.00
 380.50
 377.05
 386.35
 400.31
 413.48
 424.83
 435.35
 444.61
 452.55
 460.30
 467.27
 473.64
 478.28
 483.05
 469.14
 456.83
 445.35
 435.01
 425.71
 417.34
 409.91
 402.62
 396.25
 390.53
 385.58
 381.02
 376.92
 372.52
 369.27
 366.34
 363.71
 361.14
 359.13
 357.21
 354.79
 353.11
 351.80
 350.52
 349.47
 348.42
 347.38
 346.44
 345.60
 344.94
 344.14
 343.63
 343.07
 342.66
 342.49
 341.54
 341.09
 340.98
 341.08
 341.07
 341.07
 341.06
 340.45
 340.61
 340.75
 341.17
 341.66
 341.79
 343.31
 344.38
 362.24
 378.82
 393.84
 407.95
 420.76
 432.78
 444.10
 454.59
 465.03
 474.73
 484.26
 493.23
 501.81
 510.23
 518.40
 526.46
 534.02
 541.52
 548.76
 555.89
 562.90
 569.31
 575.48
 581.03
 586.73
 592.25
 597.63
 602.67
 607.30
 611.87
 616.28
 620.55
 624.50
 628.35
 632.11
 635.60
 638.74
 641.47
 644.22
 646.60
 648.64
 650.78
 652.50
 654.35
 656.01
 657.51
 658.86
 659.77
 660.70
 661.03
 661.32
 661.29
 660.96
 660.17
 658.85
 657.36
 655.33
 653.00
 650.00
 646.90
 643.61
 639.95
 636.25
 632.33
 628.59
 624.53
 620.38
 616.14
 611.93
 608.04
 603.83
 599.95
 596.15
 592.64
 589.17
 585.86
 582.77
 579.49
 576.74
 573.77
 570.99
 568.49
 565.84
 563.56
 561.20
 559.08
 556.88
 555.19
 553.47
 551.62
 550.06
 548.25
 546.83
 545.25
 543.92
 542.43
 541.19
 540.17
 538.95
 538.06
 537.05
 536.24
 535.42
 534.68
 534.01
 533.21
 532.59
 531.83
 531.05
 530.64
 530.08
 529.47
 528.92
 528.43
 527.79
 527.41
 527.07
 525.86
 525.27
 524.85
 524.56
 524.41
 524.37
 524.43
 524.29
 524.46
 524.51
 525.16
 525.64
 526.08
 526.47
 526.72
 526.85
 526.67
 526.90
 527.81
 528.93
 530.54
 532.28
 533.85
 535.47
 537.22
 538.90
 541.21
 544.49
 548.14
 552.53
 557.47
 563.03
 567.92
 572.73
 577.96
 583.96
 591.17
 599.05
 607.34
 615.51
 623.16
 629.74
 635.67
 641.10
 646.39
 651.25
 654.93
 657.73
 658.56
 656.70
 651.23
 643.31
 635.88
 628.89
 622.20
 616.48
 610.63
 603.77
 598.09
 571.38
 547.75
 546.57
 546.41
 548.17
 547.86
 547.97
 548.17
 548.46
 548.31
 547.98
 547.98
 548.08
 547.87
 547.49
 546.94
 547.24
 546.12
 544.41
 543.47
 542.32
 522.19
 503.57
 487.31
 472.78
 459.90
 448.31
 437.88
 428.59
 420.23
 412.71
 406.04
 399.94
 394.44
 389.60
 385.44
 381.49
 378.14
 375.13
 372.32
 369.99
 367.89
 365.90
 364.31
 362.78
 361.40
 360.16
 359.04
 358.04
 357.14
 356.62
 355.36
 355.22
 354.90
 354.51
 354.36
 353.82
 353.44
 353.00
 352.50
 352.45
 368.70
 368.93
 383.94
 396.75
 409.17
 420.25
 431.03
 440.53
 448.27
 456.15
 462.13
 451.92
 458.33
 447.69
 454.52
 460.37
 449.63
 456.37
 445.83
 435.95
 427.26
 419.53
 412.58
 406.42
 400.88
 395.79
 391.41
 386.87
 383.18
 379.96
 377.07
 374.46
 372.22
 369.89
 367.70
 366.03
 364.73
 363.56
 362.30
 361.37
 360.53
 359.88
 359.19
 358.57
 358.22
 357.69
 357.22
 356.90
 356.71
 356.54
 356.39
 356.25
 356.02
 356.12
 356.11
 356.40
 355.96
 356.06
 356.26
 356.43
 356.79
 357.91
 359.62
 374.06
 387.25
 399.43
 410.48
 420.43
 429.79
 438.01
 445.81
 452.83
 459.65
 465.88
 471.59
 477.33
 482.70
 488.43
 493.99
 498.99
 503.99
 508.79
 513.81
 518.83
 523.85
 528.96
 534.17
 539.55
 544.89
 550.51
 555.95
 561.46
 567.01
 572.61
 578.15
 583.34
 588.60
 593.64
 598.48
 603.23
 607.61
 611.95
 615.85
 619.67
 623.10
 626.49
 629.64
 632.48
 635.33
 637.60
 639.84
 641.55
 643.50
 645.25
 646.52
 647.77
 648.69
 649.72
 650.65
 651.69
 652.62
 653.36
 654.22
 654.70
 655.33
 655.60
 655.74
 655.66
 655.30
 654.87
 653.88
 652.99
 651.69
 650.22
 648.40
 646.36
 644.32
 641.69
 639.12
 636.31
 633.48
 630.53
 627.48
 624.73
 621.66
 618.59
 615.23
 612.11
 608.90
 605.61
 602.55
 599.49
 596.64
 593.78
 591.30
 588.77
 586.19
 584.07
 581.77
 579.79
 577.61
 575.65
 573.99
 571.99
 570.39
 568.65
 566.78
 565.01
 563.41
 561.86
 560.18
 558.96
 557.46
 556.42
 555.58
 555.22
 555.10
 554.79
 554.81
 554.03
 553.52
 552.57
 551.31
 550.08
 548.18
 546.36
 544.62
 543.06
 541.25
 539.93
 539.14
 538.42
 538.08
 537.37
 537.13
 537.12
 537.31
 537.88
 538.59
 539.53
 540.38
 541.54
 542.89
 544.50
 546.75
 548.67
 551.11
 553.20
 555.58
 558.32
 561.89
 566.20
 571.18
 576.96
 582.36
 587.63
 592.86
 598.68
 605.41
 612.57
 620.61
 628.65
 636.49
 643.94
 650.94
 657.35
 663.11
 668.80
 674.22
 678.70
 682.23
 684.41
 684.37
 682.13
 678.52
 674.17
 669.65
 663.98
 656.49
 648.54
 613.98
 609.28
 580.16
 578.44
 554.50
 554.85
 543.16
 520.15
 523.43
 526.29
 529.56
 532.00
 511.40
 515.36
 519.23
 523.10
 526.79
 530.41
 534.57
 537.82
 540.83
 543.35
 544.12
 545.60
 547.84
 550.36
 551.02
 551.82
 552.54
 553.98
 554.39
 554.45
 553.70
 553.03
 552.03
 530.23
 531.20
 531.88
 532.79
 533.62
 534.05
 534.35
 532.61
 533.05
 527.85
 526.46
 509.32
 511.58
 514.03
 515.62
 517.86
 519.57
 520.92
 522.33
 523.49
 524.74
 525.57
 526.41
 526.27
 507.74
 490.97
 475.97
 462.38
 450.24
 439.21
 429.19
 419.37
 411.54
 404.48
 398.23
 391.81
 387.03
 382.63
 377.86
 374.38
 371.34
 368.51
 366.06
 363.85
 361.26
 359.94
 358.24
 356.92
 355.73
 354.76
 353.88
 353.19
 352.77
 351.40
 350.86
 350.57
 350.21
 349.89
 349.80
 349.92
 365.93
 381.64
 378.17
 375.06
 371.75
 369.58
 367.52
 365.77
 363.59
 361.93
 360.44
 358.99
 357.99
 360.99
 371.80
 386.62
 400.75
 413.78
 425.60
 436.14
 445.53
 453.77
 460.40
 466.46
 454.91
 444.02
 434.32
 425.59
 417.63
 410.76
 403.69
 397.82
 392.54
 388.08
 384.08
 380.57
 377.41
 374.17
 371.65
 369.49
 367.24
 365.41
 363.47
 361.83
 360.24
 358.82
 357.84
 356.95
 356.46
 356.01
 355.91
 355.92
 356.33
 356.70
 371.63
 385.36
 398.13
 409.71
 420.94
 431.05
 440.74
 450.17
 459.15
 468.14
 476.42
 484.78
 492.80
 500.52
 508.17
 515.35
 522.62
 529.46
 536.41
 543.17
 549.65
 556.09
 562.18
 568.26
 573.93
 579.74
 585.37
 591.03
 596.33
 601.19
 605.88
 610.09
 614.38
 618.44
 622.20
 625.78
 629.00
 632.20
 634.88
 637.49
 639.84
 642.06
 644.45
 646.31
 648.08
 649.37
 650.73
 651.86
 653.07
 654.27
 655.04
 656.03
 656.63
 657.17
 657.65
 657.99
 658.49
 658.64
 658.87
 658.89
 659.20
 659.18
 659.26
 659.33
 659.60
 659.64
 659.38
 659.14
 658.73
 658.35
 658.22
 657.70
 657.13
 656.31
 655.78
 655.10
 654.19
 653.47
 652.73
 652.35
 651.52
 650.77
 650.09
 649.48
 648.73
 647.96
 647.06
 646.06
 644.85
 643.57
 642.01
 640.51
 638.66
 636.89
 634.80
 632.72
 630.85
 628.67
 626.70
 624.63
 622.77
 620.79
 619.01
 617.51
 615.86
 614.17
 612.56
 610.90
 608.91
 607.12
 605.31
 603.28
 601.45
 599.30
 597.47
 595.13
 592.91
 590.62
 588.26
 586.23
 583.81
 581.63
 579.27
 576.94
 574.85
 572.66
 570.60
 568.44
 566.69
 564.82
 563.24
 561.62
 560.05
 559.05
 557.54
 556.29
 554.96
 553.66
 552.10
 550.29
 548.56
 546.60
 545.34
 544.01
 542.91
 541.82
 540.84
 540.15
 539.54
 539.38
 539.44
 539.60
 540.14
 540.53
 541.27
 541.95
 542.95
 544.26
 545.93
 547.84
 549.35
 551.02
 552.62
 555.15
 558.24
 562.22
 566.29
 569.96
 574.17
 578.65
 583.49
 588.64
 594.97
 602.18
 609.36
 615.92
 621.73
 627.96
 634.16
 640.15
 645.63
 650.07
 653.66
 655.69
 657.03
 657.62
 658.16
 658.64
 658.98
 658.28
 656.45
 654.31
 650.08
 644.47
 637.82
 631.24
 625.72
 620.84
 614.76
 608.78
 603.41
 599.87
 597.88
 597.29
 594.66
 593.20
 589.38
 585.44
 583.19
 581.17
 579.36
 577.62
 575.66
 573.49
 572.04
 570.34
 568.61
 567.65
 566.08
 564.87
 563.19
 561.27
 559.14
 557.13
 556.41
 557.07
 558.96
 562.97
 568.07
 573.56
 578.31
 582.68
 586.21
 589.29
 591.26
 592.33
 592.90
 592.11
 591.10
 589.49
 587.54
 584.49
 581.14
 578.02
 574.72
 571.75
 568.57
 565.82
 562.54
 559.88
 557.39
 554.75
 551.98
 549.38
 547.34
 544.91
 542.82
 540.94
 539.04
 537.54
 535.98
 534.69
 533.82
 532.74
 532.06
 531.36
 531.12
 531.21
 531.39
 531.95
 532.15
 532.54
 532.78
 532.61
 532.25
 532.32
 532.89
 533.00
 532.50
 532.65
 533.88
 535.10
 535.19
 535.57
 535.01
 535.21
 535.59
 536.43
 536.49
 536.44
 536.49
 536.45
 536.00
 534.70
 516.13
 499.32
 484.09
 470.18
 458.06
 446.85
 436.27
 426.84
 418.56
 410.90
 403.91
 398.02
 392.92
 387.83
 383.54
 379.69
 376.42
 373.38
 370.84
 368.46
 366.21
 364.69
 363.52
 362.57
 361.81
 361.23
 360.81
 360.83
 360.84
 361.06
 367.35
 380.82
 392.94
 404.14
 414.63
 424.37
 433.43
 442.29
 450.96
 459.46
 468.02
 476.21
 484.49
 492.54
 500.59
 508.93
 516.94
 524.94
 532.85
 540.66
 548.30
 555.67
 562.80
 569.42
 576.08
 582.27
 588.24
 594.12
 599.71
 604.74
 609.36
 613.93
 618.03
 622.03
 625.93
 629.13
 632.32
 635.19
 637.77
 639.99
 642.19
 643.97
 645.48
 647.03
 648.03
 649.22
 650.20
 650.98
 651.88
 652.79
 653.42
 653.97
 654.48
 654.83
 655.25
 655.62
 655.86
 656.07
 655.97
 655.97
 655.67
 655.60
 655.44
 654.90
 654.61
 653.85
 653.16
 652.15
 651.13
 650.02
 648.82
 647.74
 646.56
 645.21
 643.59
 642.03
 640.42
 638.68
 637.01
 635.11
 633.40
 631.46
 629.51
 627.36
 624.93
 622.73
 620.36
 617.82
 615.34
 612.51
 609.66
 606.59
 603.83
 600.95
 598.25
 595.43
 592.69
 589.92
 587.13
 584.51
 581.96
 579.27
 576.44
 573.59
 570.94
 568.34
 566.11
 563.80
 561.52
 559.37
 557.53
 556.08
 554.67
 553.50
 552.45
 551.81
 551.43
 551.18
 551.16
 550.95
 550.95
 550.86
 550.97
 551.08
 551.67
 552.70
 553.43
 554.09
 554.18
 554.46
 554.81
 555.53
 556.78
 558.30
 560.77
 563.09
 565.89
 569.10
 572.99
 577.79
 583.01
 589.11
 595.00
 601.10
 606.69
 612.52
 618.67
 624.90
 631.21
 636.49
 641.04
 644.44
 646.79
 648.71
 649.34
 649.91
 649.62
 649.16
 647.74
 644.77
 640.19
 634.47
 627.22
 620.20
 613.28
 608.45
 603.81
 599.73
 594.45
 590.71
 588.34
 586.50
 585.45
 585.81
 587.93
 590.03
 591.33
 592.10
 590.89
 589.90
 589.91
 589.72
 588.75
 587.57
 584.91
 582.42
 579.58
 575.02
 571.12
 567.41
 564.77
 562.29
 559.56
 555.91
 552.11
 531.70
 512.93
 496.44
 481.70
 468.33
 456.49
 462.44
 451.30
 441.67
 432.30
 424.47
 417.63
 411.46
 421.32
 430.58
 439.43
 446.58
 453.83
 460.34
 465.01
 453.91
 459.52
 463.87
 452.38
 444.34
 435.61
 443.35
 450.21
 456.49
 462.14
 467.53
 463.97
 453.08
 443.47
 450.02
 455.92
 445.83
 437.15
 428.63
 421.37
 414.93
 410.24
 405.21
 401.29
 412.26
 422.64
 432.67
 441.41
 449.17
 457.35
 463.61
 468.05
 472.25
 461.52
 465.47
 469.02
 472.72
 461.25
 450.72
 441.25
 432.53
 425.07
 418.47
 412.42
 407.08
 402.27
 397.64
 393.88
 390.09
 387.08
 383.77
 381.10
 378.69
 376.32
 374.49
 372.04
 370.73
 369.56
 368.70
 367.93
 367.34
 367.01
 366.11
 365.90
 365.71
 366.44
 370.49
 370.34
 382.91
 394.72
 405.05
 414.84
 423.66
 432.09
 439.98
 447.08
 454.18
 460.46
 466.81
 472.93
 479.24
 485.41
 491.77
 498.50
 505.15
 512.53
 519.78
 527.30
 534.97
 542.67
 550.41
 557.87
 565.58
 572.62
 579.46
 585.71
 591.24
 596.22
 600.50
 604.35
 607.31
 609.88
 611.89
 613.40
 615.06
 616.66
 618.39
 620.05
 621.65
 623.38
 624.84
 626.46
 628.01
 629.71
 631.24
 632.82
 634.44
 635.79
 637.31
 638.88
 640.39
 641.85
 643.37
 644.63
 645.77
 646.99
 647.79
 648.71
 649.34
 650.01
 650.71
 651.14
 651.82
 652.14
 652.43
 652.78
 653.01
 653.00
 652.60
 652.24
 651.72
 651.05
 650.24
 649.12
 647.91
 646.22
 644.69
 642.92
 640.93
 639.04
 636.94
 634.84
 632.56
 630.60
 628.44
 626.40
 624.06
 621.85
 619.77
 617.49
 615.44
 613.20
 611.28
 609.15
 607.03
 605.23
 603.21
 601.49
 599.74
 598.46
 597.72
 597.15
 596.93
 596.84
 597.05
 597.05
 597.34
 597.81
 598.03
 598.83
 599.54
 600.69
 601.92
 603.43
 605.29
 607.06
 608.85
 610.77
 613.19
 616.17
 620.05
 624.75
 630.17
 636.26
 642.43
 648.99
 656.29
 665.46
 675.51
 685.46
 694.32
 701.68
 708.32
 714.58
 720.93
 726.83
 733.15
 740.13
 747.42
 753.98
 757.18
 756.16
 751.05
 742.34
 731.81
 719.53
 709.07
 698.87
 688.98
 680.88
 671.89
 663.80
 655.32
 646.29
 637.76
 631.39
 624.25
 618.42
 613.28
 608.35
 605.12
 602.51
 599.25
 596.63
 593.47
 590.52
 587.87
 586.18
 582.76
 578.79
 574.81
 571.53
 569.17
 566.76
 563.08
 559.27
 554.95
 551.65
 549.29
 547.76
 546.38
 545.34
 544.31
 543.28
 541.95
 540.56
 539.20
 537.78
 536.60
 535.04
 533.84
 532.45
 531.41
 530.47
 529.62
 529.26
 529.13
 529.62
 530.26
 530.03
 530.13
 530.42
 531.27
 530.25
 531.02
 530.02
 527.42
 524.98
 509.28
 495.15
 496.34
 497.60
 498.84
 500.26
 500.53
 500.48
 500.43
 488.39
 489.95
 490.75
 492.18
 493.76
 494.88
 496.20
 497.78
 499.80
 501.82
 501.74
 503.26
 505.44
 505.69
 506.02
 506.32
 506.89
 506.80
 507.82
 508.14
 508.62
 508.46
 507.82
 506.73
 505.16
 504.54
 503.09
 502.68
 489.01
 482.61
 470.75
 460.08
 450.57
 441.31
 433.48
 426.43
 420.09
 414.28
 409.15
 404.64
 400.67
 396.71
 393.44
 390.99
 398.79
 408.71
 418.24
 426.72
 434.25
 441.22
 447.90
 454.01
 459.71
 465.24
 470.31
 475.18
 479.86
 484.18
 488.36
 492.62
 496.66
 500.70
 504.83
 508.94
 513.35
 517.91
 522.52
 527.27
 532.04
 537.34
 542.60
 547.94
 553.55
 559.19
 565.08
 570.87
 576.68
 582.41
 587.77
 593.29
 598.26
 603.24
 607.91
 612.22
 616.40
 620.26
 623.73
 626.76
 629.79
 632.51
 634.96
 637.56
 639.80
 642.12
 644.01
 646.01
 647.91
 649.82
 651.74
 653.16
 655.15
 656.53
 658.18
 659.56
 661.00
 662.80
 664.62
 666.56
 668.21
 669.88
 671.60
 673.04
 674.43
 675.59
 676.53
 677.38
 678.24
 679.02
 679.61
 680.45
 680.81
 681.53
 681.97
 682.48
 682.33
 682.10
 682.09
 681.68
 681.11
 680.50
 679.75
 678.77
 677.60
 676.44
 674.99
 673.59
 671.93
 670.34
 668.71
 666.94
 665.34
 663.41
 661.77
 659.89
 658.10
 656.29
 654.26
 652.44
 650.19
 648.07
 646.17
 644.05
 641.94
 639.85
 638.16
 636.15
 634.53
 632.58
 630.62
 628.86
 626.57
 624.22
 621.29
 618.47
 615.52
 612.77
 610.29
 607.86
 606.07
 604.37
 602.93
 601.34
 600.10
 598.79
 597.31
 595.98
 594.88
 594.60
 594.84
 595.35
 595.82
 596.04
 596.33
 596.70
 597.93
 599.84
 602.65
 605.79
 608.71
 611.44
 613.89
 617.00
 620.80
 625.42
 630.88
 636.39
 642.15
 646.74
 651.06
 655.26
 659.63
 664.87
 670.58
 677.42
 682.88
 686.69
 688.52
 689.47
 689.92
 690.53
 691.68
 692.31
 691.08
 686.67
 678.30
 668.27
 658.35
 651.21
 644.19
 637.57
 630.51
 624.56
 619.51
 613.96
 609.86
 606.27
 603.55
 601.49
 599.84
 596.56
 592.90
 588.61
 586.85
 584.47
 582.72
 580.45
 575.80
 553.12
 551.01
 549.31
 548.48
 546.33
 544.30
 542.87
 541.38
 539.94
 538.35
 536.81
 535.33
 533.80
 528.52
 510.97
 494.77
 479.59
 466.83
 454.95
 444.56
 435.40
 427.66
 436.59
 444.63
 452.27
 458.44
 464.40
 470.46
 476.11
 481.20
 485.48
 489.13
 492.02
 494.32
 496.89
 498.80
 500.72
 485.85
 472.16
 459.75
 448.27
 438.04
 429.04
 421.14
 414.22
 425.00
 434.30
 443.27
 451.34
 459.51
 467.06
 473.55
 479.10
 484.49
 471.14
 464.22
 469.50
 476.05
 480.55
 485.09
 488.68
 492.51
 494.96
 480.67
 467.50
 455.65
 450.79
 440.71
 432.64
 423.47
 415.83
 409.14
 403.33
 398.00
 393.30
 389.17
 385.25
 381.72
 378.35
 375.42
 372.88
 370.59
 368.53
 366.68
 364.61
 363.35
 362.21
 361.39
 360.85
 366.77
 381.39
 394.15
 406.34
 417.70
 427.93
 437.54
 446.39
 455.15
 463.13
 470.72
 478.05
 485.24
 492.52
 499.47
 506.82
 513.94
 521.24
 528.62
 535.96
 543.36
 550.53
 557.87
 564.99
 572.19
 578.97
 585.47
 591.82
 597.84
 603.86
 609.47
 614.72
 619.75
 624.28
 628.65
 632.38
 635.95
 638.95
 642.06
 644.75
 647.08
 649.17
 650.95
 652.56
 653.90
 655.41
 656.67
 658.10
 659.29
 660.36
 661.53
 662.47
 663.63
 664.46
 665.52
 666.67
 667.40
 668.06
 668.45
 668.91
 669.32
 669.49
 669.84
 669.95
 670.06
 670.05
 669.95
 669.75
 669.28
 669.15
 668.63
 668.07
 667.56
 667.11
 666.40
 665.66
 665.29
 664.46
 663.82
 662.93
 662.24
 661.22
 660.09
 659.29
 658.06
 657.05
 655.75
 654.57
 653.41
 652.17
 650.86
 649.47
 648.12
 646.41
 644.77
 642.89
 640.90
 639.11
 636.90
 635.01
 633.01
 631.11
 629.10
 626.99
 624.99
 622.79
 621.01
 619.01
 617.21
 615.19
 613.07
 611.26
 609.34
 607.50
 605.55
 603.70
 601.83
 600.04
 598.64
 597.38
 596.44
 595.29
 594.47
 593.32
 592.19
 591.27
 590.24
 589.32
 587.79
 586.21
 584.69
 582.82
 581.34
 579.80
 578.62
 577.36
 576.52
 576.07
 575.96
 576.67
 577.60
 579.04
 580.84
 582.65
 584.79
 587.01
 590.01
 593.41
 597.77
 602.69
 608.02
 613.52
 618.77
 624.29
 630.16
 637.05
 644.94
 653.45
 662.40
 670.96
 678.77
 685.39
 691.55
 696.79
 701.82
 706.53
 710.38
 713.14
 714.03
 713.03
 710.52
 707.17
 702.95
 697.16
 689.74
 681.67
 673.60
 664.34
 656.11
 646.90
 638.71
 631.14
 623.52
 617.27
 611.04
 605.04
 600.13
 594.02
 590.12
 585.71
 582.34
 579.80
 577.82
 576.44
 574.80
 573.32
 570.19
 568.67
 568.30
 566.07
 563.46
 561.62
 560.45
 559.51
 557.86
 554.87
 552.19
 532.77
 532.29
 531.76
 531.39
 531.05
 530.44
 529.90
 529.41
 514.97
 504.57
 488.71
 474.64
 461.98
 450.78
 441.50
 432.35
 424.12
 415.60
 408.94
 402.85
 397.46
 392.62
 388.36
 384.52
 380.67
 377.60
 374.74
 372.47
 370.82
 370.24
 384.61
 397.35
 392.52
 388.37
 384.63
 381.27
 378.34
 375.61
 373.35
 370.81
 385.23
 382.11
 395.10
 406.79
 418.21
 428.09
 437.68
 445.51
 452.16
 442.44
 433.60
 425.94
 434.65
 442.98
 449.88
 455.99
 447.39
 438.46
 445.81
 452.23
 459.31
 455.98
 461.08
 466.57
 455.31
 445.48
 436.43
 428.49
 421.24
 414.42
 408.48
 403.33
 398.39
 393.96
 390.26
 399.23
 394.31
 389.88
 386.59
 383.43
 380.79
 378.31
 376.08
 373.97
 372.37
 371.04
 369.93
 368.84
 368.16
 370.04
 383.34
 395.60
 406.54
 416.89
 426.30
 434.87
 442.98
 450.28
 457.36
 464.02
 470.72
 477.05
 483.24
 489.82
 496.04
 502.83
 509.65
 516.58
 523.43
 530.18
 537.26
 544.14
 551.12
 557.91
 564.72
 571.55
 577.89
 584.30
 590.47
 596.43
 601.98
 607.79
 612.91
 617.62
 622.05
 626.25
 630.32
 634.19
 637.97
 641.38
 644.34
 647.30
 650.07
 652.77
 655.19
 657.77
 660.29
 662.66
 665.10
 667.29
 669.36
 671.22
 672.90
 674.41
 675.67
 676.90
 678.01
 679.11
 679.80
 680.52
 681.17
 681.65
 682.09
 682.38
 682.64
 682.68
 682.71
 682.84
 682.45
 682.31
 681.78
 681.20
 680.38
 679.44
 678.40
 677.06
 675.75
 674.08
 672.47
 670.72
 669.05
 667.34
 665.51
 663.76
 661.98
 660.28
 658.36
 656.62
 654.86
 653.07
 651.57
 649.81
 648.13
 646.52
 644.86
 643.28
 641.65
 640.18
 638.47
 636.92
 635.23
 633.60
 632.14
 630.43
 628.69
 626.72
 624.65
 622.78
 620.60
 618.54
 616.19
 614.07
 612.06
 610.06
 608.15
 606.04
 604.03
 602.03
 600.33
 598.39
 596.65
 594.89
 593.10
 591.29
 589.26
 587.23
 584.71
 582.94
 581.05
 579.14
 577.43
 575.78
 574.31
 572.48
 571.03
 570.03
 569.52
 569.87
 570.78
 572.10
 573.59
 575.33
 577.40
 579.76
 582.69
 585.42
 588.57
 591.72
 595.05
 598.34
 602.01
 606.41
 611.37
 617.43
 623.79
 630.71
 638.14
 645.02
 651.32
 657.39
 664.25
 671.22
 678.80
 686.22
 692.80
 698.22
 702.20
 704.78
 706.00
 706.30
 705.57
 704.41
 702.07
 697.56
 691.11
 682.10
 672.99
 663.89
 655.20
 647.18
 639.46
 632.22
 625.59
 619.43
 612.39
 584.65
 582.99
 578.09
 575.38
 571.44
 548.20
 546.98
 545.48
 543.33
 542.90
 542.81
 542.63
 542.77
 542.79
 545.21
 547.89
 549.80
 551.42
 553.48
 555.43
 556.49
 556.64
 555.97
 554.28
 553.35
 552.61
 551.85
 551.47
 550.52
 550.77
 549.59
 547.53
 545.38
 529.34
 510.81
 494.33
 479.39
 466.35
 454.42
 443.78
 434.50
 425.35
 417.91
 411.22
 405.40
 398.96
 393.96
 406.17
 417.55
 427.70
 437.13
 445.21
 451.79
 458.01
 459.51
 449.06
 439.75
 442.28
 433.95
 428.96
 437.26
 445.23
 452.31
 442.48
 433.13
 425.02
 417.52
 409.87
 404.18
 399.06
 409.25
 409.23
 419.71
 428.94
 421.64
 431.28
 440.45
 448.61
 455.74
 462.77
 451.19
 441.57
 435.22
 442.69
 434.53
 425.77
 418.90
 428.21
 421.59
 430.13
 422.71
 416.24
 425.52
 431.47
 439.02
 430.72
 423.55
 416.39
 410.55
 405.20
 400.68
 411.41
 405.77
 401.19
 395.97
 392.18
 388.66
 392.19
 388.57
 385.22
 381.89
 379.20
 376.88
 374.70
 372.93
 371.43
 370.09
 369.28
 368.45
 367.11
 366.30
 366.37
 380.33
 392.90
 404.41
 414.97
 424.57
 433.61
 441.55
 449.20
 455.98
 462.08
 467.87
 472.98
 477.89
 482.30
 486.87
 491.18
 495.16
 499.25
 503.32
 507.59
 512.23
 517.11
 522.60
 527.94
 533.54
 539.09
 544.98
 551.08
 557.17
 563.56
 569.70
 576.03
 582.23
 588.60
 594.94
 600.95
 606.65
 612.19
 617.27
 621.84
 626.16
 630.54
 634.19
 637.67
 640.90
 644.01
 646.51
 648.96
 650.96
 652.77
 654.59
 656.03
 657.53
 659.18
 660.56
 661.80
 662.92
 664.03
 665.03
 665.92
 666.63
 667.37
 667.93
 668.34
 669.00
 669.30
 669.77
 670.20
 670.48
 670.63
 670.77
 671.09
 670.78
 670.60
 669.94
 669.65
 668.88
 668.09
 667.19
 665.77
 664.49
 662.84
 661.26
 659.53
 657.78
 656.00
 654.20
 652.58
 650.62
 648.86
 646.97
 645.28
 643.75
 642.17
 641.16
 640.04
 639.64
 639.57
 639.72
 640.54
 641.49
 642.84
 644.16
 645.44
 646.80
 647.82
 648.94
 649.44
 650.00
 650.00
 649.90
 649.51
 648.56
 647.70
 646.23
 644.81
 643.03
 641.12
 639.31
 637.28
 635.25
 633.13
 631.11
 628.90
 626.81
 624.83
 622.55
 620.39
 617.95
 615.86
 613.57
 611.42
 609.27
 607.15
 605.33
 603.40
 601.86
 600.27
 598.35
 596.41
 593.87
 591.58
 589.42
 587.68
 586.01
 584.71
 583.74
 582.77
 582.39
 581.95
 581.96
 582.26
 583.03
 584.13
 585.42
 586.98
 588.48
 590.33
 591.80
 593.12
 594.71
 596.34
 598.50
 600.65
 603.29
 605.26
 607.03
 608.83
 611.25
 614.42
 617.78
 621.20
 624.48
 627.53
 630.38
 632.84
 635.46
 637.91
 640.82
 643.74
 646.56
 649.01
 650.11
 650.80
 651.02
 651.52
 651.26
 651.44
 651.79
 651.71
 651.24
 650.32
 648.39
 645.45
 639.90
 634.31
 628.68
 623.71
 618.54
 614.19
 609.57
 604.11
 599.70
 596.13
 592.42
 590.78
 588.50
 586.25
 584.62
 584.56
 583.31
 581.47
 578.93
 576.43
 573.09
 570.58
 567.22
 564.70
 541.73
 520.76
 521.68
 524.21
 527.39
 530.95
 533.96
 537.26
 539.24
 541.81
 544.43
 547.19
 549.57
 550.81
 552.53
 552.58
 552.02
 551.12
 549.91
 549.52
 537.56
 536.91
 517.52
 499.37
 483.93
 470.74
 465.06
 470.96
 476.26
 481.13
 485.62
 489.86
 493.67
 497.11
 500.09
 502.89
 505.10
 507.09
 508.68
 510.61
 512.15
 513.23
 514.41
 514.67
 515.40
 513.86
 514.38
 497.84
 483.15
 469.84
 457.76
 447.68
 438.11
 429.10
 437.99
 446.09
 453.08
 460.37
 466.24
 471.61
 476.15
 479.34
 483.20
 485.48
 488.93
 491.34
 493.81
 496.53
 499.97
 502.18
 502.86
 503.87
 505.49
 506.44
 506.99
 506.89
 507.30
 491.97
 492.98
 484.78
 484.70
 471.33
 458.50
 448.05
 438.54
 429.99
 422.49
 415.44
 409.30
 403.37
 398.03
 393.23
 388.90
 385.21
 381.79
 379.01
 376.61
 374.25
 380.13
 377.81
 375.93
 373.84
 372.85
 385.87
 397.78
 409.10
 419.69
 429.52
 438.47
 446.72
 454.75
 461.98
 468.88
 475.19
 481.07
 486.96
 492.47
 497.92
 503.13
 508.32
 513.48
 518.94
 524.74
 529.97
 535.27
 540.44
 545.70
 551.23
 556.51
 562.06
 567.45
 573.01
 578.20
 583.58
 588.73
 593.75
 598.98
 603.98
 608.88
 613.49
 618.04
 622.34
 626.51
 630.46
 633.91
 637.42
 640.58
 643.62
 646.36
 648.62
 650.96
 652.76
 654.69
 656.32
 657.69
 659.22
 660.70
 661.93
 663.03
 664.33
 665.20
 666.08
 666.97
 667.67
 668.51
 668.95
 669.56
 670.00
 670.20
 670.78
 670.80
 670.92
 670.93
 670.84
 670.55
 670.30
 670.07
 669.76
 669.39
 668.95
 668.45
 667.71
 667.04
 666.33
 665.50
 664.95
 664.05
 663.15
 662.13
 661.12
 659.91
 658.52
 657.37
 655.93
 654.64
 653.17
 651.76
 650.48
 648.93
 647.74
 646.56
 645.21
 643.79
 642.21
 640.39
 638.45
 636.70
 634.53
 632.58
 630.52
 628.47
 626.72
 624.65
 622.99
 620.89
 618.90
 616.61
 614.25
 611.82
 609.14
 606.53
 603.47
 600.63
 597.96
 595.57
 593.31
 590.98
 589.18
 587.46
 586.12
 584.71
 583.53
 582.68
 581.91
 581.42
 580.98
 581.18
 581.96
 582.97
 584.17
 584.85
 585.77
 586.39
 586.95
 588.16
 589.34
 591.01
 593.01
 595.11
 596.90
 599.01
 601.60
 604.94
 609.25
 614.13
 619.81
 625.73
 631.56
 637.00
 642.30
 648.17
 653.85
 660.17
 666.15
 671.84
 676.15
 679.54
 682.28
 684.26
 685.53
 686.08
 686.07
 685.16
 683.15
 679.33
 673.90
 668.01
 662.61
 657.45
 651.60
 644.24
 637.92
 632.03
 625.72
 619.35
 613.42
 609.47
 605.43
 602.58
 598.43
 595.48
 592.33
 590.20
 587.58
 585.22
 583.80
 583.12
 580.51
 577.66
 575.99
 574.99
 571.59
 548.23
 527.81
 528.03
 527.83
 527.94
 528.05
 527.84
 527.56
 527.10
 526.89
 526.10
 525.59
 525.03
 524.23
 507.81
 492.03
 477.92
 464.43
 453.19
 443.07
 433.96
 425.97
 418.77
 414.79
 412.31
 421.98
 425.88
 434.50
 442.55
 449.59
 456.53
 462.78
 468.60
 473.64
 477.98
 482.18
 485.16
 488.55
 491.49
 494.04
 497.24
 500.31
 503.08
 504.77
 506.10
 506.89
 499.00
 486.30
 472.77
 460.69
 449.32
 439.39
 430.45
 422.91
 430.92
 439.42
 447.28
 454.05
 459.95
 465.15
 469.64
 473.47
 477.43
 480.68
 484.82
 471.83
 459.75
 449.58
 440.22
 431.20
 423.98
 428.98
 421.98
 415.68
 410.21
 404.09
 400.68
 411.22
 406.29
 401.56
 397.11
 393.30
 389.57
 386.71
 383.34
 381.01
 379.01
 376.60
 374.84
 373.16
 371.94
 370.65
 369.48
 368.64
 367.97
 367.48
 366.83
 366.24
 365.82
 365.34
 365.00
 364.80
 364.72
 364.55
 364.50
 364.45
 363.80
 363.82
 364.04
 366.94
 367.34
 380.61
 392.75
 403.57
 413.82
 423.23
 431.81
 440.03
 447.83
 455.54
 463.39
 471.15
 478.74
 486.06
 493.56
 501.00
 508.30
 515.57
 522.91
 530.42
 537.78
 545.30
 552.37
 559.33
 566.00
 572.40
 578.66
 584.39
 590.16
 595.44
 600.60
 605.34
 609.90
 613.91
 617.62
 620.96
 623.56
 625.91
 628.02
 630.11
 632.10
 633.69
 635.42
 636.98
 638.38
 639.94
 641.45
 643.10
 644.69
 646.33
 647.79
 649.01
 650.21
 651.29
 652.36
 653.33
 654.29
 655.16
 656.05
 656.94
 657.65
 658.28
 658.55
 659.00
 658.90
 659.01
 658.81
 658.43
 658.18
 657.67
 657.10
 656.19
 655.37
 654.43
 653.49
 652.44
 651.10
 649.99
 648.79
 647.41
 646.07
 644.46
 642.92
 641.02
 639.42
 637.88
 636.09
 634.28
 632.35
 630.62
 628.66
 626.79
 624.81
 622.83
 620.85
 618.76
 616.89
 614.90
 612.91
 610.72
 608.55
 606.49
 604.44
 602.50
 600.75
 598.97
 597.08
 595.27
 593.44
 591.80
 590.12
 588.31
 586.28
 584.25
 582.12
 579.91
 577.62
 575.06
 572.35
 569.92
 567.52
 565.47
 563.83
 562.14
 560.83
 559.55
 558.59
 557.83
 557.25
 556.62
 556.26
 556.24
 556.21
 556.59
 557.13
 558.12
 559.61
 560.85
 562.26
 563.44
 564.39
 565.55
 567.10
 569.29
 571.76
 574.48
 576.63
 578.77
 580.69
 583.02
 586.32
 590.29
 595.16
 600.04
 605.24
 610.52
 616.06
 621.76
 627.88
 634.09
 639.68
 644.62
 648.65
 652.29
 655.56
 658.60
 661.54
 664.09
 667.28
 670.05
 672.45
 673.50
 672.35
 668.62
 661.56
 653.20
 643.88
 635.19
 626.67
 597.61
 591.34
 566.41
 544.77
 525.39
 506.85
 490.27
 494.04
 480.84
 466.95
 454.46
 443.61
 452.65
 459.99
 469.49
 477.54
 486.18
 493.77
 501.49
 510.44
 517.10
 523.99
 530.29
 534.56
 539.70
 542.73
 544.06
 545.35
 546.82
 547.84
 548.15
 549.34
 550.70
 552.23
 553.91
 555.62
 557.26
 558.53
 559.48
 558.73
 557.96
 556.86
 555.28
 554.05
 552.44
 551.10
 549.59
 547.83
 546.95
 545.95
 545.46
 544.71
 543.94
 543.25
 541.92
 541.03
 539.83
 539.04
 537.74
 536.37
 534.63
 532.07
 530.76
 528.18
 527.37
 526.23
 525.31
 514.38
 514.24
 513.31
 512.68
 513.31
 513.88
 514.79
 515.32
 515.58
 515.53
 500.27
 501.65
 503.98
 488.98
 475.58
 479.53
 466.97
 455.98
 445.58
 436.92
 427.73
 419.96
 413.06
 406.95
 400.86
 398.77
 399.30
 395.37
 407.43
 418.89
 429.00
 438.50
 430.35
 439.11
 430.90
 423.61
 416.85
 418.27
 428.74
 420.57
 414.21
 423.89
 416.50
 410.85
 405.46
 400.52
 410.47
 405.32
 407.89
 403.00
 398.60
 394.54
 391.08
 387.78
 384.20
 381.78
 389.70
 387.23
 384.21
 381.99
 378.99
 377.19
 380.57
 392.91
 404.12
 405.31
 400.68
 396.41
 392.77
 388.99
 386.09
 383.18
 380.57
 378.51
 376.96
 375.16
 373.85
 372.46
 371.62
 370.95
 370.16
 369.74
 369.27
 374.94
 387.05
 398.34
 408.91
 418.42
 427.28
 435.35
 442.61
 449.55
 455.80
 462.02
 467.72
 473.04
 478.04
 482.64
 487.37
 491.53
 495.88
 500.19
 504.47
 508.63
 512.76
 517.29
 521.76
 526.88
 532.09
 537.48
 543.34
 549.40
 555.66
 562.00
 568.40
 574.26
 579.93
 585.14
 589.82
 594.54
 598.49
 602.14
 605.02
 607.82
 610.14
 612.43
 614.48
 616.44
 618.39
 620.05
 621.95
 623.85
 625.47
 626.92
 628.23
 629.61
 630.74
 632.07
 633.06
 633.86
 634.57
 635.01
 635.31
 635.48
 635.63
 635.57
 635.51
 635.76
 635.79
 636.21
 636.29
 636.66
 637.09
 637.58
 638.32
 638.79
 639.41
 639.97
 640.67
 641.31
 641.68
 642.31
 642.58
 643.12
 643.31
 643.68
 644.01
 644.01
 644.01
 643.81
 643.73
 643.45
 643.01
 642.61
 642.25
 642.02
 641.32
 640.89
 640.10
 639.19
 638.37
 637.63
 636.77
 635.69
 634.72
 633.65
 632.49
 631.34
 630.00
 628.50
 626.65
 624.89
 622.80
 620.62
 618.36
 615.72
 613.35
 610.81
 608.23
 605.61
 603.05
 600.64
 598.08
 595.77
 593.19
 590.87
 588.69
 586.92
 585.03
 583.22
 581.60
 579.74
 578.37
 576.73
 575.06
 573.65
 572.09
 570.78
 569.00
 567.30
 565.57
 563.71
 562.14
 560.53
 558.97
 557.38
 556.44
 555.70
 555.23
 554.90
 554.51
 554.06
 553.36
 552.82
 552.44
 552.29
 552.56
 552.41
 552.27
 551.64
 551.48
 552.03
 552.83
 554.44
 555.80
 556.92
 557.73
 558.55
 559.70
 561.03
 563.43
 566.18
 570.07
 574.16
 578.24
 581.92
 585.03
 588.72
 593.15
 598.94
 605.74
 613.87
 622.88
 631.69
 640.32
 648.79
 657.31
 665.58
 673.62
 681.36
 687.92
 693.93
 698.54
 701.69
 701.62
 698.25
 692.63
 683.97
 674.37
 665.33
 657.50
 648.65
 640.68
 633.42
 627.47
 623.33
 618.89
 615.60
 610.74
 605.37
 601.13
 595.62
 590.76
 585.48
 581.73
 576.66
 572.89
 569.50
 566.25
 563.23
 560.31
 557.28
 553.85
 549.96
 546.07
 537.16
 534.74
 516.57
 500.51
 486.06
 472.66
 460.89
 450.80
 441.32
 436.29
 443.36
 449.72
 455.65
 461.19
 465.57
 470.01
 473.41
 477.27
 480.84
 484.26
 487.53
 489.98
 491.88
 489.09
 476.08
 464.38
 454.04
 459.13
 464.82
 470.34
 475.30
 479.07
 482.87
 485.48
 472.93
 476.34
 464.60
 454.64
 443.58
 434.62
 426.86
 419.77
 413.70
 408.53
 404.37
 400.64
 410.77
 420.20
 413.98
 408.68
 403.61
 399.65
 402.38
 397.85
 408.66
 403.80
 413.82
 423.23
 431.41
 424.47
 432.32
 438.99
 446.29
 438.66
 431.00
 424.60
 432.14
 429.02
 422.82
 416.94
 411.54
 407.09
 409.28
 408.25
 417.53
 411.98
 407.38
 403.14
 399.63
 405.06
 401.16
 397.24
 394.22
 391.30
 388.37
 385.73
 383.66
 381.79
 380.21
 378.69
 376.72
 375.55
 374.49
 373.54
 372.69
 371.62
 370.76
 369.78
 369.00
 368.30
 367.77
 367.40
 367.16
 366.84
 377.26
 389.23
 400.91
 411.32
 420.89
 429.90
 437.91
 445.62
 452.75
 459.58
 466.02
 472.62
 479.26
 485.93
 492.34
 498.70
 505.43
 511.99
 518.69
 525.52
 532.27
 539.24
 546.12
 552.91
 559.42
 565.87
 572.09
 577.88
 583.79
 589.31
 594.48
 599.53
 604.18
 608.56
 612.40
 616.16
 619.75
 622.97
 625.68
 627.91
 629.72
 631.15
 632.03
 632.63
 633.27
 633.74
 634.16
 634.75
 635.47
 636.53
 637.27
 638.35
 639.21
 639.99
 640.49
 640.74
 640.97
 640.77
 640.39
 639.85
 639.07
 638.26
 637.14
 636.22
 635.00
 633.80
 632.32
 630.59
 628.93
 627.14
 625.22
 623.20
 621.28
 619.35
 617.42
 615.48
 613.53
 611.97
 610.18
 608.56
 607.00
 605.90
 604.81
 603.83
 603.25
 602.52
 602.07
 601.76
 601.39
 601.25
 601.02
 600.92
 600.73
 600.66
 600.39
 599.75
 599.08
 598.17
 597.05
 595.65
 594.38
 592.84
 591.16
 589.34
 587.61
 585.65
 583.58
 581.63
 579.56
 577.31
 575.28
 573.15
 571.33
 569.10
 567.19
 565.07
 563.06
 561.26
 559.83
 558.55
 557.29
 556.36
 555.53
 554.67
 554.31
 553.48
 553.13
 552.22
 551.39
 550.26
 548.73
 547.36
 545.92
 544.73
 543.46
 542.41
 541.37
 540.63
 540.47
 540.22
 540.40
 540.76
 541.68
 542.92
 544.42
 546.18
 547.96
 550.27
 552.34
 554.61
 557.25
 560.12
 563.71
 567.44
 571.59
 575.63
 579.77
 583.99
 588.79
 594.22
 600.59
 607.93
 615.74
 623.97
 631.37
 637.73
 643.46
 648.81
 654.33
 659.10
 662.69
 666.22
 669.60
 671.24
 670.51
 667.26
 661.24
 654.71
 648.94
 642.25
 635.72
 628.35
 620.82
 613.83
 605.45
 597.21
 590.68
 585.42
 580.87
 576.89
 572.90
 569.01
 566.01
 563.01
 560.71
 560.24
 558.51
 558.76
 559.98
 559.59
 559.03
 559.92
 560.93
 559.64
 558.98
 556.68
 555.21
 553.09
 549.98
 546.78
 544.90
 543.11
 540.80
 538.92
 537.73
 536.96
 535.96
 536.06
 537.56
 540.60
 544.34
 548.81
 553.03
 557.12
 561.71
 566.34
 570.71
 574.74
 578.26
 580.14
 580.72
 580.75
 580.18
 578.86
 577.27
 574.94
 572.85
 569.37
 566.33
 561.30
 556.97
 553.27
 549.24
 545.72
 527.25
 510.62
 494.76
 481.28
 469.16
 458.34
 448.71
 440.04
 432.43
 425.39
 419.55
 413.99
 409.10
 404.79
 401.11
 398.20
 395.28
 405.25
 414.42
 423.08
 431.47
 438.23
 444.50
 437.15
 442.24
 447.91
 453.32
 457.99
 449.39
 441.45
 447.11
 439.70
 444.13
 449.21
 447.59
 452.53
 444.18
 436.56
 430.31
 424.08
 418.37
 413.53
 408.98
 404.48
 401.33
 410.20
 417.38
 424.94
 433.25
 440.72
 446.65
 438.78
 446.91
 439.12
 432.10
 438.69
 444.72
 451.05
 454.95
 447.05
 450.85
 455.26
 458.94
 462.14
 453.13
 445.12
 438.00
 443.20
 447.98
 439.58
 432.73
 426.55
 421.30
 416.77
 412.09
 407.98
 404.28
 402.96
 399.56
 396.50
 394.25
 391.93
 389.94
 388.54
 386.39
 384.65
 383.68
 383.02
 386.51
 391.36
 400.83
 408.94
 416.75
 423.97
 430.28
 436.15
 441.43
 446.59
 451.33
 455.60
 460.04
 464.13
 468.62
 472.96
 477.76
 482.89
 487.50
 491.95
 496.35
 501.22
 506.20
 511.58
 517.12
 523.01
 528.91
 534.72
 540.84
 546.76
 552.58
 557.93
 562.93
 567.84
 572.26
 576.63
 580.57
 584.51
 587.96
 591.06
 593.76
 595.98
 597.88
 599.29
 600.67
 602.10
 603.29
 604.56
 605.90
 607.31
 608.78
 610.10
 611.49
 612.74
 614.17
 615.25
 616.43
 617.48
 618.74
 619.86
 620.78
 621.80
 622.62
 623.66
 624.09
 624.48
 624.83
 624.75
 624.78
 624.30
 623.77
 622.89
 622.10
 620.99
 619.69
 618.52
 616.97
 615.67
 614.01
 612.51
 610.96
 609.26
 607.63
 605.67
 604.10
 602.09
 600.18
 598.07
 596.16
 594.24
 592.02
 590.12
 587.91
 585.81
 583.73
 581.56
 579.60
 577.44
 575.30
 573.37
 571.43
 569.69
 567.52
 565.67
 563.70
 561.93
 560.24
 558.31
 556.78
 555.00
 553.60
 552.14
 551.13
 549.72
 548.54
 547.29
 545.86
 544.98
 543.98
 543.08
 541.97
 541.07
 540.37
 539.63
 539.07
 538.46
 538.01
 537.41
 537.07
 536.86
 536.48
 536.33
 535.90
 535.71
 535.34
 534.90
 534.61
 534.05
 533.95
 533.75
 534.18
 534.36
 534.72
 535.15
 535.44
 535.99
 536.59
 537.83
 538.95
 539.86
 540.87
 541.88
 543.19
 544.77
 546.90
 549.51
 553.16
 557.84
 563.36
 569.72
 576.05
 582.24
 588.92
 596.33
 604.69
 613.23
 622.60
 632.34
 642.31
 651.98
 660.18
 667.66
 673.90
 678.71
 681.14
 681.92
 681.33
 679.60
 675.64
 668.97
 660.38
 649.94
 637.34
 625.81
 597.83
 590.95
 585.55
 579.30
 556.57
 554.71
 554.24
 552.12
 551.80
 552.52
 553.27
 555.74
 558.47
 560.92
 562.83
 563.05
 562.64
 562.08
 560.47
 558.92
 557.93
 556.24
 553.61
 550.65
 547.09
 544.58
 542.62
 538.96
 536.66
 534.20
 531.88
 530.39
 528.75
 527.68
 526.21
 524.09
 522.38
 520.34
 518.51
 512.36
 497.72
 497.65
 497.58
 498.52
 499.77
 501.20
 502.38
 503.44
 504.29
 505.06
 505.56
 505.60
 505.34
 504.81
 504.33
 504.09
 503.48
 502.74
 498.06
 485.16
 473.64
 463.18
 453.76
 445.58
 438.22
 431.40
 425.26
 419.04
 414.23
 409.91
 406.12
 402.71
 399.04
 396.53
 394.58
 392.42
 390.58
 389.02
 398.82
 407.34
 415.40
 411.26
 407.44
 403.39
 399.95
 396.96
 394.66
 392.20
 389.98
 387.78
 386.00
 385.10
 384.49
 384.84
 382.96
 382.36
 384.23
 394.70
 404.33
 413.40
 420.76
 427.18
 421.47
 417.22
 413.20
 409.38
 406.04
 413.44
 409.59
 405.73
 402.56
 400.60
 398.54
 396.19
 394.67
 393.50
 392.05
 390.65
 389.28
 388.25
 387.13
 386.42
 385.67
 385.11
 385.60
 385.04
 384.33
 383.50
 382.75
 382.07
 381.57
 381.41
 380.97
 380.47
 379.93
 379.83
 379.85
 379.86
 379.68
 378.91
 379.12
 379.31
 385.18
 394.76
 402.88
 410.89
 418.61
 425.54
 432.19
 438.37
 444.43
 450.19
 456.27
 462.54
 468.09
 473.88
 479.59
 485.33
 491.70
 498.03
 504.83
 511.34
 518.01
 524.61
 531.05
 537.54
 543.59
 549.53
 554.88
 560.29
 565.46
 570.51
 575.26
 579.44
 583.19
 586.17
 589.36
 591.72
 593.95
 595.95
 597.66
 599.49
 601.04
 602.84
 604.45
 606.21
 607.99
 609.59
 611.23
 612.91
 614.52
 616.07
 617.46
 618.91
 619.92
 621.03
 621.83
 622.64
 622.98
 623.28
 623.25
 623.03
 622.83
 622.34
 622.01
 621.21
 620.49
 619.64
 618.57
 617.62
 616.46
 615.41
 614.07
 612.76
 611.39
 609.75
 608.17
 606.36
 604.82
 602.94
 601.14
 599.53
 597.58
 595.72
 593.65
 591.58
 589.42
 587.38
 585.44
 583.40
 581.36
 579.22
 577.20
 574.88
 572.59
 570.53
 568.28
 566.25
 564.23
 562.20
 560.08
 558.08
 556.27
 554.24
 552.62
 550.86
 549.37
 547.83
 546.45
 545.30
 544.07
 543.27
 542.54
 542.09
 541.58
 541.52
 541.67
 541.80
 542.12
 542.51
 543.16
 543.54
 543.99
 544.29
 544.06
 543.95
 543.96
 543.96
 544.07
 544.76
 545.58
 546.93
 548.93
 551.14
 553.53
 555.67
 557.71
 560.04
 562.93
 567.14
 571.92
 577.53
 583.88
 589.89
 595.20
 600.88
 607.79
 615.51
 624.56
 634.61
 645.05
 655.24
 664.02
 672.32
 679.58
 686.93
 693.53
 699.28
 703.35
 703.92
 701.32
 695.29
 686.46
 674.82
 661.73
 647.66
 635.20
 626.48
 615.33
 589.30
 585.67
 579.40
 573.46
 569.01
 563.51
 560.56
 559.80
 561.62
 559.36
 556.93
 554.33
 553.80
 552.62
 551.36
 551.32
 552.49
 554.84
 557.16
 559.74
 561.77
 562.99
 563.79
 563.71
 562.94
 560.75
 557.47
 553.62
 549.46
 546.12
 543.40
 540.86
 538.78
 536.90
 535.21
 533.89
 532.30
 531.07
 528.86
 526.78
 525.30
 523.27
 521.24
 520.12
 518.71
 517.54
 515.98
 500.78
 487.21
 474.78
 462.51
 464.56
 454.50
 444.65
 436.89
 429.50
 422.95
 417.05
 411.95
 407.45
 403.01
 412.11
 408.30
 416.87
 424.88
 431.69
 439.32
 446.09
 438.88
 432.09
 437.68
 430.72
 424.54
 419.39
 414.75
 409.58
 418.92
 426.93
 421.23
 416.21
 412.19
 408.37
 404.93
 401.24
 398.62
 396.05
 394.15
 391.93
 389.84
 388.36
 386.12
 384.61
 383.25
 382.02
 380.92
 380.13
 379.32
 379.08
 378.28
 377.35
 377.01
 376.61
 376.35
 375.72
 374.74
 373.97
 383.67
 382.71
 382.03
 381.63
 381.27
 382.44
 388.70
 397.83
 406.74
 415.17
 423.05
 430.85
 438.06
 445.06
 452.05
 458.85
 465.26
 471.54
 477.78
 484.20
 490.38
 496.74
 503.17
 509.95
 516.36
 523.02
 529.72
 536.45
 543.20
 549.88
 555.89
 561.61
 566.94
 571.95
 576.66
 580.99
 584.79
 588.41
 591.37
 594.23
 596.81
 599.23
 601.71
 603.84
 606.05
 608.05
 610.14
 612.23
 614.10
 616.09
 617.68
 619.52
 620.96
 622.47
 623.82
 625.14
 626.33
 627.29
 628.16
 628.95
 629.75
 630.38
 631.04
 631.64
 631.97
 632.47
 632.93
 633.23
 633.41
 633.47
 633.62
 633.46
 633.41
 633.17
 632.96
 632.76
 632.18
 631.97
 631.27
 630.74
 630.07
 629.36
 628.63
 627.76
 626.89
 625.80
 624.72
 623.45
 622.10
 620.79
 619.21
 617.59
 615.63
 613.67
 611.60
 609.54
 607.49
 605.34
 603.10
 600.59
 598.43
 595.99
 593.69
 591.22
 588.70
 586.13
 583.32
 580.79
 577.91
 575.12
 572.30
 569.27
 566.45
 563.20
 560.08
 556.67
 553.41
 550.77
 548.29
 546.46
 544.81
 543.83
 542.95
 542.45
 542.31
 542.58
 543.32
 544.69
 546.82
 549.44
 552.09
 554.98
 557.89
 561.40
 564.96
 569.26
 574.14
 579.62
 585.86
 592.37
 599.64
 606.87
 613.99
 621.39
 629.25
 637.62
 645.86
 653.87
 661.29
 667.26
 671.93
 675.34
 678.31
 680.27
 681.65
 682.28
 681.25
 678.43
 672.69
 664.22
 654.40
 645.76
 635.78
 625.80
 616.32
 610.29
 602.86
 594.67
 588.51
 582.56
 575.40
 570.06
 567.05
 563.95
 562.75
 560.68
 560.91
 561.22
 561.90
 561.41
 561.37
 560.53
 559.58
 559.72
 558.25
 555.92
 553.63
 551.57
 549.71
 549.24
 551.32
 554.18
 557.77
 561.59
 566.03
 570.13
 573.61
 575.75
 576.08
 575.77
 574.29
 572.56
 570.11
 566.90
 562.91
 558.92
 554.52
 550.27
 546.74
 543.47
 540.92
 539.03
 537.53
 535.78
 532.90
 530.11
 527.90
 526.31
 524.68
 523.11
 521.20
 519.48
 517.73
 516.16
 514.64
 512.88
 498.49
 498.84
 499.66
 501.39
 501.65
 488.39
 475.95
 464.95
 454.46
 445.81
 437.83
 431.35
 425.51
 420.76
 428.49
 436.34
 442.20
 446.58
 450.62
 455.26
 460.64
 451.77
 443.50
 447.95
 452.45
 456.61
 458.55
 450.09
 441.78
 434.40
 428.46
 422.82
 417.84
 413.25
 409.33
 404.89
 401.10
 397.99
 394.99
 392.70
 390.73
 388.25
 386.83
 385.64
 384.68
 384.01
 383.51
 382.96
 382.06
 391.96
 401.26
 409.54
 417.68
 425.11
 432.50
 439.35
 445.82
 452.24
 457.91
 462.92
 467.93
 472.74
 477.46
 482.42
 487.27
 491.95
 496.95
 501.66
 506.79
 511.91
 517.02
 522.22
 527.30
 532.67
 537.90
 543.31
 548.38
 553.34
 558.01
 562.41
 566.67
 570.40
 573.96
 577.26
 580.14
 582.42
 584.28
 586.05
 587.85
 589.56
 591.01
 592.31
 593.78
 595.00
 596.40
 597.76
 599.28
 600.85
 602.17
 603.25
 603.83
 604.14
 603.83
 603.05
 601.84
 600.16
 598.14
 595.53
 592.77
 589.70
 586.53
 583.27
 580.05
 576.84
 573.46
 570.11
 566.90
 563.91
 561.12
 558.21
 555.59
 552.83
 550.35
 547.81
 545.43
 542.99
 540.59
 538.53
 536.38
 534.44
 532.39
 530.56
 528.70
 526.83
 525.25
 523.82
 522.44
 521.20
 520.38
 519.64
 519.27
 519.35
 519.11
 518.90
 518.41
 517.67
 516.60
 515.34
 514.61
 514.15
 513.83
 513.45
 513.40
 513.76
 514.39
 515.75
 517.37
 519.74
 522.56
 526.01
 529.71
 533.74
 537.86
 541.78
 546.10
 551.09
 556.88
 563.69
 571.12
 579.11
 586.50
 593.65
 599.98
 606.19
 612.97
 620.57
 628.51
 635.56
 641.31
 644.78
 646.30
 646.77
 646.19
 644.87
 642.08
 638.98
 634.28
 627.75
 621.28
 614.75
 609.07
 602.77
 595.69
 589.92
 585.13
 579.92
 576.22
 572.90
 570.11
 567.50
 563.75
 560.38
 557.84
 556.45
 556.01
 557.21
 557.49
 556.54
 555.88
 555.20
 554.78
 554.70
 554.43
 553.49
 551.64
 549.27
 546.45
 543.30
 540.77
 523.59
 507.73
 506.56
 506.31
 505.97
 504.38
 503.14
 502.03
 491.72
 491.15
 490.84
 490.35
 487.02
 483.42
 483.47
 482.83
 483.54
 483.89
 483.40
 472.96
 463.46
 454.92
 447.23
 439.50
 444.15
 448.34
 441.30
 434.77
 429.40
 434.76
 429.08
 423.67
 419.11
 425.19
 420.68
 417.01
 424.01
 430.81
 434.33
 428.69
 424.62
 430.66
 425.40
 420.66
 416.69
 413.12
 419.61
 415.85
 411.66
 408.80
 406.02
 403.12
 401.50
 399.75
 397.18
 395.36
 393.62
 392.26
 390.94
 390.04
 388.94
 388.24
 387.62
 387.16
 386.84
 386.36
 386.22
 385.90
 385.61
 385.45
 385.40
 385.26
 384.94
 384.84
 384.76
 384.28
 384.45
 384.71
 385.04
 385.13
 385.72
 391.95
 399.95
 407.46
 414.61
 421.15
 427.14
 432.72
 438.25
 443.23
 448.10
 452.79
 457.31
 461.58
 465.52
 469.57
 473.71
 477.54
 481.29
 485.16
 489.04
 492.84
 496.96
 500.96
 505.06
 509.06
 513.05
 517.05
 520.84
 524.76
 528.78
 533.10
 536.99
 540.89
 544.70
 548.03
 551.73
 554.86
 558.07
 561.46
 564.72
 568.05
 570.94
 573.85
 576.56
 578.51
 580.36
 581.72
 583.15
 584.03
 585.13
 586.12
 587.31
 588.57
 589.92
 591.63
 593.06
 594.76
 596.58
 598.42
 600.18
 601.96
 603.67
 605.10
 606.89
 608.30
 609.77
 611.19
 612.37
 613.64
 614.57
 615.52
 616.26
 616.94
 617.64
 618.08
 618.37
 618.53
 618.58
 618.22
 618.00
 617.40
 616.76
 616.08
 614.98
 614.18
 613.06
 611.85
 610.67
 609.00
 607.50
 605.45
 603.61
 601.55
 599.29
 597.06
 594.66
 592.29
 589.76
 587.29
 584.66
 582.29
 579.86
 577.38
 575.04
 572.53
 570.38
 568.14
 566.03
 564.03
 562.02
 560.22
 558.30
 556.57
 554.71
 552.84
 550.66
 548.09
 545.88
 543.29
 540.86
 538.78
 537.50
 536.45
 535.51
 534.55
 533.20
 532.28
 532.05
 532.25
 533.12
 534.31
 536.08
 537.87
 539.88
 542.60
 546.44
 550.79
 555.91
 562.12
 567.91
 573.72
 579.25
 585.02
 591.12
 597.61
 605.05
 613.04
 621.44
 628.69
 634.62
 638.36
 640.93
 643.13
 645.22
 646.60
 646.64
 645.37
 644.04
 642.03
 640.13
 639.12
 636.81
 633.22
 629.00
 625.30
 621.27
 617.74
 613.87
 609.98
 605.28
 602.06
 596.85
 590.17
 583.45
 579.60
 578.84
 576.16
 575.34
 572.81
 569.23
 570.51
 572.55
 574.30
 576.57
 575.51
 572.86
 571.77
 571.30
 570.37
 570.03
 568.73
 567.26
 566.53
 563.48
 559.23
 555.81
 553.73
 549.95
 545.36
 527.12
 510.71
 495.94
 482.84
 470.86
 460.27
 451.05
 442.74
 435.57
 429.01
 434.01
 439.91
 446.02
 452.22
 456.79
 448.12
 440.50
 443.55
 448.60
 453.34
 457.60
 460.94
 463.75
 455.17
 447.16
 440.04
 444.34
 437.10
 430.09
 424.08
 418.98
 413.38
 409.14
 405.23
 402.50
 400.15
 397.54
 395.18
 404.07
 400.86
 398.17
 395.36
 399.32
 408.49
 405.34
 402.41
 399.66
 397.10
 394.59
 393.43
 391.79
 390.01
 388.81
 388.33
 386.69
 385.52
 383.97
 383.27
 392.95
 391.25
 389.83
 388.44
 387.30
 385.57
 384.91
 384.12
 382.91
 382.02
 381.22
 380.60
 379.94
 378.84
 378.46
 378.01
 377.81
 377.53
 377.28
 376.95
 376.25
 376.13
 376.22
 376.39
 376.55
 376.90
 377.11
 378.10
 388.09
 397.58
 406.52
 414.87
 422.28
 429.65
 436.69
 443.42
 449.58
 455.12
 460.51
 465.46
 470.61
 475.25
 480.03
 484.72
 489.35
 494.12
 498.50
 503.15
 507.54
 512.38
 516.85
 521.16
 526.05
 530.74
 535.17
 539.05
 542.74
 546.77
 551.09
 555.28
 559.16
 563.04
 566.54
 570.08
 572.97
 575.68
 578.71
 581.44
 584.49
 587.14
 590.03
 592.93
 595.73
 598.66
 601.19
 603.78
 606.00
 607.80
 609.42
 610.68
 611.91
 612.52
 612.87
 612.78
 612.60
 612.14
 611.53
 610.97
 610.08
 609.37
 608.53
 607.78
 606.80
 605.92
 604.93
 603.54
 602.48
 601.23
 599.71
 597.94
 595.95
 594.05
 591.85
 589.56
 586.91
 584.21
 581.49
 578.44
 575.50
 572.55
 569.49
 566.75
 564.07
 561.26
 558.34
 555.80
 552.82
 550.04
 547.14
 544.42
 541.88
 539.39
 537.05
 534.35
 532.11
 529.50
 527.35
 525.72
 524.24
 523.32
 522.69
 522.32
 521.59
 521.03
 520.43
 519.88
 520.19
 520.38
 521.44
 523.09
 524.48
 525.34
 526.00
 526.80
 528.02
 530.12
 532.81
 536.33
 540.59
 544.23
 547.81
 551.83
 556.75
 562.77
 569.90
 578.11
 586.50
 594.85
 602.56
 610.70
 619.53
 628.68
 638.61
 647.25
 655.03
 660.52
 663.97
 664.37
 663.24
 660.11
 652.90
 642.11
 632.50
 605.85
 598.37
 573.83
 556.55
 553.19
 549.47
 545.82
 544.04
 542.54
 540.88
 540.50
 543.75
 546.07
 548.76
 550.59
 550.73
 551.76
 553.18
 551.86
 549.88
 547.49
 545.74
 544.07
 542.76
 543.68
 549.11
 557.30
 567.17
 579.36
 593.12
 606.51
 617.26
 623.73
 625.16
 619.84
 612.46
 605.01
 597.01
 590.01
 583.31
 576.38
 553.74
 534.77
 517.39
 515.65
 513.19
 497.17
 483.85
 471.87
 460.48
 450.93
 442.64
 434.87
 428.19
 422.07
 416.86
 411.57
 407.32
 403.69
 400.12
 397.21
 394.68
 392.02
 390.31
 388.38
 395.64
 393.88
 403.29
 412.26
 420.54
 428.18
 434.86
 441.08
 446.57
 451.01
 455.51
 459.56
 463.30
 454.47
 446.43
 439.88
 445.10
 450.79
 454.21
 457.29
 449.26
 453.03
 445.73
 449.96
 454.26
 446.63
 439.47
 440.52
 434.07
 428.06
 431.06
 437.35
 444.02
 450.12
 455.40
 463.16
 469.35
 476.71
 483.54
 487.69
 491.52
 495.37
 495.43
 482.49
 481.94
 470.84
 461.06
 451.45
 442.31
 435.38
 428.64
 422.28
 417.35
 413.11
 409.70
 416.83
 412.75
 408.97
 405.28
 402.35
 399.91
 397.72
 395.45
 393.61
 391.64
 389.88
 387.69
 386.42
 385.38
 384.34
 383.51
 382.56
 381.80
 380.52
 379.87
 379.38
 378.84
 378.56
 378.40
 378.26
 378.34
 377.70
 378.13
 378.32
 382.59
 392.13
 400.92
 408.92
 416.33
 423.20
 429.68
 435.61
 441.55
 446.99
 452.40
 457.96
 463.46
 469.01
 474.21
 479.89
 485.80
 491.72
 498.25
 504.92
 511.93
 519.04
 525.94
 532.54
 538.69
 544.22
 549.00
 553.40
 557.06
 560.75
 564.18
 567.46
 570.91
 573.82
 576.84
 579.56
 582.40
 584.76
 586.88
 589.00
 590.60
 592.24
 593.81
 595.53
 597.08
 598.77
 600.49
 602.34
 604.21
 606.19
 607.87
 609.38
 610.94
 612.55
 613.69
 615.13
 616.11
 617.20
 618.18
 619.16
 620.15
 621.03
 622.13
 623.02
 623.91
 624.62
 625.26
 626.13
 626.62
 627.36
 628.02
 628.52
 629.07
 629.46
 629.92
 629.82
 629.84
 629.56
 629.20
 628.58
 627.62
 626.46
 624.81
 623.23
 621.21
 619.19
 616.97
 614.67
 612.31
 609.98
 607.58
 605.02
 602.42
 599.58
 596.32
 592.99
 589.29
 585.36
 581.62
 578.76
 576.78
 575.41
 574.87
 575.28
 576.45
 578.11
 580.20
 583.08
 586.27
 590.04
 594.14
 598.62
 603.06
 607.76
 612.58
 617.52
 622.87
 628.88
 635.79
 643.71
 652.94
 662.75
 673.07
 683.77
 695.49
 708.74
 721.77
 733.29
 743.76
 753.18
 761.67
 769.40
 776.16
 782.24
 787.92
 793.03
 797.42
 801.48
 805.13
 808.42
 806.48
 800.33
 791.20
 778.88
 765.29
 748.86
 734.47
 718.93
 704.83
 693.65
 685.29
 676.76
 669.08
 663.07
 656.87
 650.98
 645.08
 640.27
 636.25
 633.12
 630.81
 628.23
 626.41
 624.86
 624.28
 623.05
 621.85
 620.26
 620.23
 621.81
 624.63
 627.97
 631.77
 636.09
 640.58
 644.53
 647.97
 650.38
 652.04
 652.43
 652.49
 650.84
 648.56
 646.90
 644.91
 641.62
 638.46
 630.61
 598.55
 569.10
 541.59
 516.43
 494.79
 477.51
 489.36
 501.12
 511.31
 495.78
 476.20
 482.78
 468.20
 475.98
 483.98
 490.49
 496.24
 480.61
 465.75
 452.78
 441.30
 430.57
 421.11
 412.70
 404.93
 397.44
 391.99
 386.79
 382.11
 377.70
 374.23
 370.91
 369.12
 366.51
 364.76
 363.48
 362.13
 361.02
 360.02
 378.62
 392.95
 404.86
 399.57
 411.72
 422.94
 433.15
 441.83
 449.25
 456.53
 463.17
 468.26
 473.13
 477.62
 465.26
 454.13
 443.72
 434.55
 426.19
 418.67
 411.70
 405.63
 399.87
 395.08
 390.58
 386.62
 383.06
 379.55
 376.90
 374.31
 371.98
 369.28
 367.35
 365.71
 364.44
 363.80
 372.02
 385.92
 399.13
 411.61
 423.25
 434.53
 445.47
 456.53
 467.87
 479.19
 490.27
 500.84
 510.56
 518.90
 526.11
 531.90
 536.21
 539.59
 542.43
 545.49
 547.44
 548.69
 549.63
 549.96
 549.97
 549.77
 549.59
 549.03
 547.83
 546.65
 545.38
 544.14
 543.23
 543.01
 542.91
 543.22
 543.39
 543.85
 545.07
 546.46
 548.32
 550.58
 552.93
 555.33
 557.80
 560.22
 562.50
 564.85
 566.96
 569.27
 571.54
 573.59
 575.73
 577.85
 579.97
 581.77
 583.70
 585.63
 587.16
 588.75
 589.97
 591.37
 592.54
 593.68
 594.72
 595.74
 596.87
 597.78
 598.60
 599.24
 599.92
 600.43
 600.68
 601.12
 601.10
 601.39
 601.35
 601.32
 601.19
 600.97
 601.07
 600.86
 600.58
 600.22
 600.00
 599.70
 599.33
 599.00
 598.70
 598.43
 597.98
 597.59
 597.23
 596.60
 596.34
 595.81
 595.43
 594.89
 594.30
 593.77
 593.09
 592.58
 591.82
 591.24
 590.42
 589.78
 588.90
 588.01
 587.01
 585.81
 584.63
 583.36
 582.13
 581.01
 579.91
 578.72
 577.35
 575.91
 574.52
 572.77
 570.99
 569.39
 567.65
 565.79
 563.91
 561.92
 560.13
 558.41
 556.67
 555.01
 553.51
 552.45
 551.61
 551.15
 551.13
 550.92
 550.93
 550.74
 550.66
 550.70
 550.93
 551.03
 551.03
 551.33
 551.29
 551.86
 552.88
 553.89
 555.10
 556.49
 558.14
 559.53
 560.88
 562.29
 563.66
 565.69
 568.12
 571.31
 574.88
 578.89
 583.50
 588.45
 594.51
 601.56
 610.20
 619.88
 629.69
 639.62
 649.06
 659.25
 668.53
 677.28
 684.45
 689.80
 692.92
 692.03
 686.63
 675.37
 662.53
 652.08
 641.37
 630.63
 619.57
 610.11
 583.80
 559.22
 538.20
 519.18
 502.46
 487.01
 473.41
 461.37
 450.43
 440.79
 433.01
 441.71
 450.34
 458.11
 466.60
 473.74
 482.46
 491.42
 501.47
 512.03
 520.52
 528.57
 535.91
 542.22
 546.00
 549.10
 552.19
 552.27
 552.44
 551.10
 549.89
 548.70
 547.53
 546.88
 546.09
 545.28
 544.25
 543.43
 541.78
 539.91
 537.52
 518.96
 503.67
 488.60
 490.34
 492.21
 493.99
 495.69
 481.82
 484.74
 471.06
 474.76
 479.58
 482.72
 485.85
 488.57
 491.71
 494.44
 496.19
 481.87
 469.09
 458.08
 447.47
 438.62
 443.86
 434.88
 443.69
 450.52
 459.27
 464.74
 453.97
 444.47
 436.22
 442.90
 449.61
 456.35
 461.71
 467.14
 473.93
 478.04
 482.43
 486.69
 490.12
 493.41
 497.37
 499.73
 500.26
 500.13
 502.12
 503.61
 505.05
 506.44
 508.30
 508.77
 508.39
 499.25
 499.83
 499.94
 499.85
 485.96
 473.47
 462.12
 451.41
 442.17
 434.15
 427.14
 420.82
 414.64
 409.28
 405.05
 400.74
 398.27
 395.24
 392.62
 393.86
 393.57
 403.71
 412.74
 421.47
 429.22
 436.50
 443.05
 448.84
 454.36
 459.52
 464.17
 468.65
 473.09
 477.38
 481.34
 485.41
 489.47
 493.42
 497.28
 501.45
 505.61
 509.54
 513.39
 517.25
 521.43
 525.68
 530.42
 535.37
 540.34
 545.60
 550.84
 556.46
 561.61
 566.45
 570.91
 574.62
 577.85
 580.47
 582.72
 584.55
 586.49
 588.24
 589.72
 591.25
 592.52
 593.97
 595.17
 596.26
 597.23
 598.11
 599.30
 600.27
 601.24
 602.42
 603.77
 605.40
 606.56
 608.00
 609.30
 610.77
 611.99
 613.19
 614.38
 615.14
 616.02
 616.72
 617.35
 617.91
 618.72
 619.45
 620.01
 620.80
 621.32
 621.99
 622.39
 622.65
 622.99
 622.89
 622.70
 622.23
 621.71
 621.04
 620.33
 619.80
 619.02
 618.32
 617.29
 616.36
 615.32
 614.39
 613.55
 612.60
 611.74
 610.86
 609.88
 608.79
 607.41
 605.87
 603.98
 602.28
 600.26
 598.43
 596.19
 593.87
 591.78
 589.30
 587.27
 584.75
 582.57
 580.21
 577.99
 576.19
 574.07
 572.67
 571.20
 569.98
 568.28
 566.35
 564.02
 561.52
 559.06
 556.56
 554.10
 551.49
 548.64
 545.88
 539.49
 520.64
 503.88
 505.39
 507.15
 508.94
 511.44
 513.60
 516.44
 519.29
 522.96
 526.97
 531.47
 536.62
 541.66
 547.20
 552.78
 559.00
 565.40
 571.76
 578.48
 584.63
 590.87
 596.78
 603.21
 610.29
 618.06
 626.65
 635.79
 645.51
 655.26
 665.13
 675.32
 685.99
 697.29
 708.36
 719.42
 728.88
 735.79
 740.81
 744.83
 748.75
 753.47
 759.93
 765.83
 770.75
 773.78
 773.30
 768.87
 760.18
 748.26
 733.34
 719.10
 704.69
 691.12
 679.41
 666.17
 655.95
 645.86
 637.87
 631.88
 625.30
 621.67
 614.50
 610.45
 607.30
 602.97
 599.28
 572.15
 547.83
 525.65
 506.19
 489.07
 473.16
 479.64
 464.78
 451.90
 440.91
 450.72
 439.75
 431.37
 439.84
 448.85
 457.87
 465.08
 472.57
 479.02
 484.91
 490.02
 493.82
 497.74
 499.36
 502.73
 486.25
 471.73
 458.46
 446.41
 435.57
 425.81
 417.33
 409.70
 403.03
 397.13
 391.81
 404.73
 399.26
 411.83
 422.95
 432.65
 442.49
 450.44
 458.00
 463.70
 469.33
 467.19
 455.87
 445.19
 435.27
 426.54
 418.39
 411.55
 405.29
 399.96
 395.57
 408.41
 419.07
 429.06
 421.26
 431.33
 422.90
 415.81
 409.23
 403.50
 398.15
 393.84
 389.65
 384.99
 381.89
 378.20
 391.18
 386.66
 383.50
 380.05
 377.04
 374.44
 372.39
 386.65
 399.39
 394.15
 393.74
 389.86
 386.18
 382.86
 395.27
 390.95
 387.55
 384.80
 382.12
 379.90
 377.71
 376.24
 374.82
 373.44
 372.29
 371.26
 370.34
 369.60
 369.14
 367.93
 367.64
 367.27
 367.05
 366.84
 366.86
 375.47
 374.42
 373.88
 372.99
 372.19
 371.37
 370.64
 369.87
 369.29
 368.56
 367.70
 367.33
 367.10
 377.09
 389.88
 401.39
 412.15
 422.34
 431.70
 441.03
 449.33
 457.20
 464.68
 471.91
 478.72
 485.15
 491.63
 497.97
 504.37
 510.73
 517.06
 522.96
 528.66
 534.49
 539.84
 544.96
 549.96
 554.97
 559.97
 564.57
 569.22
 573.69
 578.53
 583.17
 587.66
 592.39
 596.45
 600.51
 603.86
 606.67
 609.10
 610.99
 612.29
 612.86
 613.48
 614.23
 615.21
 616.39
 617.95
 619.65
 621.29
 623.16
 624.74
 626.37
 628.13
 629.62
 631.16
 632.34
 633.71
 634.44
 634.99
 635.49
 635.84
 636.06
 635.85
 635.97
 635.57
 635.11
 634.70
 633.93
 633.14
 631.93
 630.93
 629.54
 627.99
 626.49
 624.74
 623.06
 621.26
 619.63
 617.77
 615.59
 613.73
 611.96
 610.26
 608.44
 607.19
 605.87
 604.89
 603.70
 602.93
 602.54
 601.58
 600.42
 599.28
 598.05
 596.95
 595.75
 594.78
 593.50
 592.55
 591.29
 590.07
 588.96
 587.56
 586.61
 585.05
 583.74
 582.17
 580.75
 579.18
 577.46
 576.11
 574.40
 573.26
 571.93
 570.44
 569.60
 568.44
 567.59
 566.53
 565.68
 564.61
 563.35
 561.92
 559.92
 556.73
 534.36
 514.12
 503.11
 506.40
 510.26
 513.83
 517.85
 521.57
 525.11
 528.40
 531.26
 534.43
 537.59
 541.13
 544.92
 549.13
 553.31
 557.58
 562.02
 566.42
 571.18
 576.06
 581.25
 586.23
 591.11
 595.90
 600.61
 606.15
 612.33
 619.50
 627.35
 636.11
 645.90
 655.91
 666.32
 676.89
 687.20
 697.18
 706.76
 715.79
 723.31
 729.08
 731.77
 729.99
 722.59
 709.93
 696.94
 684.65
 673.88
 662.09
 652.68
 643.32
 610.98
 581.79
 555.71
 555.24
 554.91
 555.32
 555.89
 557.30
 558.07
 558.26
 560.24
 562.51
 566.36
 570.13
 572.51
 573.86
 574.68
 575.41
 576.87
 577.48
 576.63
 576.87
 576.68
 576.91
 576.72
 576.25
 575.73
 575.85
 576.37
 575.93
 574.04
 573.23
 571.01
 568.21
 544.39
 528.55
 509.59
 491.24
 475.51
 461.36
 448.42
 436.68
 426.41
 417.07
 408.87
 401.58
 395.22
 390.40
 385.26
 390.03
 385.33
 381.00
 376.60
 373.04
 370.13
 367.12
 364.41
 362.07
 360.16
 359.54
 376.19
 372.77
 388.09
 383.28
 378.66
 375.19
 371.47
 367.22
 384.70
 379.83
 376.25
 372.92
 370.13
 385.62
 381.36
 395.22
 390.40
 384.66
 379.99
 376.39
 372.45
 369.11
 365.50
 362.65
 360.78
 363.20
 361.28
 378.06
 395.65
 390.39
 385.95
 400.95
 415.16
 427.74
 440.47
 452.02
 461.02
 469.32
 476.58
 484.03
 490.32
 495.59
 499.13
 488.82
 489.44
 474.89
 461.40
 449.76
 438.89
 429.30
 420.67
 413.10
 405.59
 399.33
 393.70
 388.43
 383.79
 379.81
 375.73
 372.15
 369.44
 367.09
 365.09
 363.28
 361.75
 360.17
 359.36
 357.82
 357.04
 362.84
 377.35
 391.32
 404.28
 415.96
 426.76
 436.68
 445.92
 454.72
 462.85
 470.97
 478.37
 485.43
 491.99
 498.39
 504.85
 510.77
 516.69
 522.22
 527.90
 533.51
 539.06
 544.35
 549.12
 553.91
 558.01
 562.01
 565.71
 568.84
 572.16
 574.94
 577.75
 580.17
 582.75
 585.28
 588.05
 590.95
 593.85
 597.07
 600.06
 603.45
 607.01
 610.31
 613.58
 616.52
 619.57
 622.51
 625.36
 628.02
 630.52
 633.27
 635.44
 637.70
 639.53
 641.38
 643.04
 644.73
 646.26
 647.73
 648.96
 649.96
 650.97
 651.97
 652.87
 653.89
 654.90
 655.91
 656.82
 657.54
 658.28
 658.95
 659.76
 660.18
 660.76
 660.79
 660.61
 660.35
 659.81
 659.23
 658.41
 657.57
 656.51
 655.36
 654.12
 652.91
 651.92
 650.43
 649.19
 647.67
 646.30
 644.87
 643.58
 642.52
 640.87
 639.39
 637.85
 636.26
 634.64
 632.97
 631.57
 630.02
 628.62
 627.15
 625.84
 624.55
 623.20
 622.08
 620.87
 619.78
 618.81
 617.43
 616.38
 615.14
 614.13
 613.12
 612.01
 610.80
 609.72
 608.65
 607.39
 606.05
 604.44
 602.80
 601.12
 599.41
 597.57
 595.51
 593.76
 591.68
 589.71
 587.64
 585.68
 583.81
 581.93
 580.14
 578.12
 576.31
 574.48
 572.73
 571.06
 569.45
 567.81
 566.03
 564.52
 563.07
 561.86
 560.88
 559.89
 559.30
 558.47
 557.82
 557.14
 556.53
 556.07
 555.47
 555.12
 554.41
 553.67
 552.50
 551.35
 550.82
 550.33
 550.50
 550.45
 550.81
 551.22
 551.80
 552.62
 553.66
 554.89
 555.90
 557.11
 558.40
 559.96
 561.77
 563.69
 566.12
 568.51
 571.26
 574.23
 576.81
 579.63
 582.76
 586.49
 590.84
 596.26
 602.13
 608.12
 613.81
 619.02
 624.72
 631.35
 639.52
 649.06
 658.96
 668.66
 676.80
 683.12
 687.20
 689.68
 691.22
 691.29
 688.46
 680.52
 668.67
 658.30
 647.87
 638.58
 630.62
 624.56
 595.01
 590.01
 563.70
 540.03
 519.13
 499.82
 503.84
 507.65
 512.29
 516.06
 519.35
 523.02
 527.12
 531.30
 535.07
 538.97
 543.17
 547.55
 551.30
 555.17
 557.45
 559.61
 564.25
 565.32
 569.49
 573.54
 576.59
 580.23
 584.90
 589.91
 590.82
 591.24
 591.12
 590.20
 589.68
 588.42
 588.27
 587.55
 586.99
 586.39
 585.55
 584.50
 583.65
 582.68
 581.22
 579.59
 552.93
 529.04
 507.44
 488.19
 470.07
 454.57
 440.71
 442.44
 429.89
 418.71
 408.73
 400.16
 392.65
 391.58
 384.12
 401.31
 417.08
 431.17
 443.95
 454.26
 460.93
 459.74
 468.97
 454.27
 441.44
 429.90
 435.31
 423.98
 414.18
 405.26
 396.74
 411.56
 402.51
 397.76
 390.88
 408.29
 399.86
 392.88
 386.49
 380.64
 374.28
 369.65
 365.38
 361.34
 358.11
 354.90
 351.81
 349.23
 367.71
 364.24
 381.61
 397.55
 411.60
 425.54
 438.98
 450.08
 461.88
 448.59
 457.83
 466.85
 476.16
 483.55
 490.79
 495.91
 500.82
 505.64
 509.97
 492.38
 488.04
 472.94
 458.94
 446.05
 434.74
 424.87
 415.98
 407.88
 400.90
 394.61
 389.25
 384.02
 379.52
 376.07
 372.66
 369.49
 366.54
 363.69
 360.72
 358.45
 356.60
 354.84
 353.36
 351.82
 350.64
 349.68
 348.21
 347.59
 347.13
 347.02
 349.91
 366.52
 382.77
 397.19
 410.87
 423.29
 434.66
 445.49
 455.34
 464.81
 473.63
 481.77
 489.79
 497.31
 504.68
 511.61
 518.45
 525.00
 531.10
 537.09
 542.68
 548.42
 553.87
 559.19
 563.97
 568.47
 572.62
 576.46
 580.32
 583.68
 587.12
 590.00
 592.90
 595.61
 598.15
 600.64
 602.37
 603.84
 604.75
 605.68
 606.81
 607.63
 608.77
 609.89
 611.10
 612.29
 613.46
 614.81
 615.93
 617.14
 618.13
 618.81
 619.23
 619.21
 618.99
 618.19
 617.37
 616.13
 614.72
 613.35
 611.61
 610.05
 608.45
 607.10
 605.59
 604.33
 603.00
 601.80
 600.72
 599.45
 598.40
 596.96
 595.77
 594.89
 593.70
 593.03
 592.03
 591.52
 590.87
 590.48
 590.24
 590.01
 590.01
 589.91
 589.82
 589.24
 588.51
 587.76
 586.59
 585.43
 583.78
 582.21
 580.39
 578.45
 576.60
 574.34
 572.31
 570.08
 567.77
 565.49
 563.24
 560.92
 558.63
 556.66
 554.40
 552.36
 550.12
 548.21
 546.19
 544.17
 542.45
 540.61
 539.05
 537.44
 536.00
 534.70
 533.33
 531.90
 530.51
 529.56
 528.40
 527.46
 526.51
 525.66
 524.90
 523.91
 523.42
 522.67
 522.01
 521.11
 520.40
 519.86
 518.97
 518.37
 517.64
 516.97
 516.28
 515.55
 514.69
 513.82
 513.34
 512.61
 512.05
 511.84
 511.56
 511.60
 511.54
 511.69
 511.62
 511.56
 511.40
 511.66
 512.39
 513.16
 513.74
 513.67
 513.80
 514.42
 515.18
 516.16
 516.94
 518.25
 519.72
 521.75
 524.48
 527.43
 530.79
 534.11
 537.70
 541.33
 544.99
 548.99
 553.20
 558.38
 564.24
 571.31
 578.78
 586.20
 593.38
 600.55
 608.09
 615.58
 623.92
 632.43
 641.29
 650.46
 658.21
 663.59
 666.23
 666.01
 663.31
 659.68
 653.71
 645.54
 635.28
 626.26
 597.83
 591.25
 565.72
 542.65
 544.29
 523.06
 524.25
 505.23
 488.30
 473.27
 461.65
 449.68
 459.01
 466.51
 472.96
 481.06
 488.76
 494.38
 504.44
 509.90
 515.11
 519.20
 522.38
 524.44
 527.80
 531.82
 533.24
 533.11
 513.60
 496.54
 499.19
 501.97
 503.77
 505.59
 507.23
 508.71
 509.94
 510.85
 500.46
 485.52
 470.96
 458.77
 447.69
 437.62
 428.76
 420.58
 413.53
 406.87
 401.49
 396.44
 391.89
 387.90
 384.21
 380.99
 378.29
 374.76
 373.19
 371.37
 370.03
 368.83
 368.25
 383.12
 386.11
 382.90
 379.61
 376.75
 374.07
 371.47
 368.82
 366.84
 365.35
 363.82
 362.74
 361.96
 361.47
 360.52
 359.87
 359.18
 358.86
 358.18
 357.56
 357.40
 356.66
 356.90
 357.01
 356.01
 355.71
 355.53
 355.28
 354.95
 355.06
 355.55
 355.60
 356.44
 371.49
 385.34
 382.21
 393.99
 405.99
 416.99
 426.69
 434.72
 427.65
 435.99
 444.29
 450.56
 455.80
 459.92
 463.93
 467.54
 457.38
 448.34
 446.21
 437.89
 430.60
 423.24
 417.12
 412.20
 407.58
 403.53
 399.47
 396.23
 392.80
 390.12
 387.81
 385.63
 383.97
 382.07
 380.76
 379.49
 377.54
 376.48
 375.74
 384.36
 394.43
 404.58
 414.13
 422.61
 430.75
 438.28
 445.45
 452.30
 458.87
 465.19
 470.97
 476.57
 481.81
 486.83
 492.05
 497.14
 502.13
 507.02
 512.01
 517.21
 522.29
 527.46
 532.32
 536.98
 540.99
 545.09
 548.38
 551.24
 554.32
 557.39
 560.65
 564.08
 567.87
 571.79
 575.71
 579.84
 583.75
 587.88
 591.59
 595.03
 598.23
 601.11
 603.59
 605.54
 607.58
 609.22
 610.80
 612.32
 613.59
 614.83
 615.65
 616.88
 617.69
 618.42
 619.18
 619.76
 620.59
 621.33
 622.10
 622.89
 623.50
 623.95
 624.05
 624.15
 624.03
 624.03
 623.53
 622.97
 622.18
 621.06
 619.95
 618.46
 617.21
 615.69
 613.72
 612.05
 609.94
 607.85
 605.56
 603.31
 601.18
 598.96
 596.86
 594.58
 592.72
 590.75
 588.77
 586.90
 585.11
 583.30
 580.97
 578.87
 576.58
 574.42
 572.28
 570.15
 568.34
 566.20
 564.28
 562.16
 560.24
 558.22
 556.29
 554.66
 553.00
 551.60
 549.94
 548.54
 546.69
 544.82
 544.44
 544.30
 543.97
 542.77
 541.99
 541.59
 541.43
 542.39
 543.95
 546.46
 549.11
 552.20
 555.18
 558.26
 562.04
 566.53
 571.78
 577.30
 583.17
 588.85
 594.67
 600.90
 607.41
 614.57
 622.01
 630.11
 639.10
 648.09
 657.18
 665.76
 674.29
 681.46
 687.11
 691.50
 695.05
 698.05
 699.34
 699.01
 695.91
 689.62
 678.95
 668.76
 660.18
 650.86
 642.68
 635.21
 627.19
 620.07
 613.36
 584.63
 581.56
 577.71
 575.64
 553.87
 551.39
 549.95
 550.75
 549.78
 551.80
 554.22
 555.60
 557.54
 557.68
 557.12
 556.10
 554.09
 552.58
 550.83
 548.94
 548.75
 550.77
 550.40
 550.56
 549.80
 548.72
 546.85
 545.16
 543.25
 529.32
 511.09
 494.68
 478.91
 465.42
 453.68
 443.01
 433.71
 425.94
 418.45
 411.60
 405.34
 399.91
 394.52
 390.66
 396.70
 394.13
 391.52
 389.76
 388.89
 394.70
 406.83
 417.95
 427.65
 435.39
 427.65
 420.08
 413.37
 407.44
 401.89
 397.00
 409.40
 404.96
 414.37
 407.93
 402.54
 397.38
 392.85
 403.66
 398.39
 394.46
 389.91
 385.92
 382.23
 379.30
 376.77
 374.00
 371.10
 368.69
 367.22
 365.60
 364.34
 363.70
 362.73
 360.56
 360.10
 360.19
 375.07
 389.37
 402.83
 414.95
 425.75
 432.58
 424.92
 418.33
 424.79
 418.32
 412.78
 421.81
 430.52
 433.97
 437.37
 443.44
 435.09
 427.08
 420.08
 412.97
 407.27
 401.74
 397.27
 393.34
 389.81
 386.83
 384.04
 381.74
 379.77
 377.79
 376.21
 374.79
 373.61
 372.35
 370.91
 382.32
 394.19
 405.27
 415.64
 425.38
 434.24
 442.52
 450.07
 457.36
 463.82
 469.94
 475.75
 481.27
 486.65
 491.58
 496.52
 501.47
 506.42
 511.28
 516.35
 521.42
 526.48
 531.63
 536.37
 541.23
 545.41
 548.67
 551.50
 554.25
 556.92
 559.13
 561.62
 564.26
 566.83
 569.65
 572.18
 574.86
 577.18
 579.66
 581.79
 584.01
 586.01
 588.01
 590.21
 592.29
 594.76
 596.88
 599.00
 601.10
 603.09
 605.08
 606.77
 608.79
 610.51
 612.56
 614.31
 615.78
 617.40
 618.56
 619.80
 620.72
 621.65
 622.28
 622.66
 622.99
 622.89
 623.10
 622.69
 622.32
 621.99
 621.39
 620.75
 619.88
 619.39
 618.55
 617.80
 617.12
 616.30
 615.57
 614.82
 614.23
 613.41
 612.77
 612.09
 611.48
 611.04
 610.43
 609.99
 609.39
 609.15
 608.94
 608.84
 608.66
 608.49
 608.34
 607.71
 607.04
 606.43
 605.69
 605.12
 604.21
 603.39
 602.35
 601.21
 599.79
 598.21
 596.79
 594.91
 593.12
 591.11
 589.10
 587.19
 585.27
 583.44
 581.30
 579.77
 577.69
 576.12
 574.41
 572.77
 571.09
 569.48
 567.83
 565.95
 564.06
 562.35
 560.62
 559.15
 557.54
 555.88
 554.20
 552.68
 551.51
 549.96
 549.06
 547.76
 546.68
 545.11
 543.30
 541.07
 538.96
 537.87
 536.88
 535.19
 532.87
 531.29
 530.26
 529.73
 529.96
 530.66
 532.20
 534.48
 537.93
 542.44
 547.69
 553.62
 559.46
 565.21
 570.79
 576.81
 583.23
 590.31
 598.48
 607.13
 616.02
 625.32
 634.38
 642.85
 650.96
 659.27
 666.74
 673.66
 679.00
 682.70
 685.73
 686.76
 684.68
 679.11
 671.70
 661.93
 649.54
 618.28
 610.56
 604.40
 596.96
 572.26
 550.04
 547.33
 545.90
 542.41
 541.07
 539.96
 538.47
 539.32
 538.69
 541.32
 538.99
 537.99
 535.59
 535.03
 535.63
 535.66
 533.80
 532.02
 530.72
 530.04
 529.54
 528.59
 527.83
 527.34
 526.61
 525.35
 524.01
 522.81
 521.53
 520.38
 519.54
 518.89
 518.00
 516.40
 515.36
 505.42
 500.28
 486.35
 474.22
 463.50
 452.95
 443.65
 435.19
 427.87
 421.28
 415.55
 410.40
 406.16
 414.84
 416.36
 424.22
 432.30
 439.07
 444.96
 437.17
 429.75
 423.57
 417.82
 412.74
 408.16
 403.75
 399.87
 395.58
 391.63
 388.96
 386.37
 384.03
 381.43
 378.98
 377.19
 375.27
 373.54
 372.29
 371.36
 370.62
 370.06
 369.55
 369.10
 367.99
 367.89
 368.00
 378.50
 377.55
 388.90
 400.11
 410.00
 409.10
 404.69
 400.52
 397.17
 393.85
 390.86
 388.98
 400.98
 397.78
 393.60
 403.94
 400.35
 396.91
 395.72
 393.05
 390.65
 400.88
 397.99
 407.39
 416.05
 411.85
 407.36
 416.33
 424.79
 432.32
 438.68
 446.22
 451.59
 456.93
 448.14
 440.23
 437.90
 443.81
 436.73
 430.76
 424.68
 419.61
 424.65
 419.89
 415.30
 411.07
 407.46
 404.12
 401.40
 398.76
 396.09
 393.68
 391.31
 389.68
 387.71
 386.24
 384.82
 383.03
 382.13
 381.32
 380.69
 379.92
 379.53
 379.17
 378.86
 382.17
 391.45
 400.81
 409.43
 417.28
 424.56
 431.20
 437.18
 443.26
 448.94
 454.24
 459.02
 463.42
 467.57
 471.52
 475.27
 479.04
 482.64
 485.97
 489.27
 492.85
 496.66
 500.60
 504.54
 508.58
 512.22
 516.00
 519.50
 522.95
 526.16
 528.94
 531.75
 534.47
 537.02
 539.62
 542.46
 545.71
 548.44
 551.50
 554.35
 557.11
 559.70
 561.93
 564.24
 566.41
 568.67
 570.61
 572.75
 575.07
 577.06
 579.16
 581.14
 583.33
 585.29
 587.37
 589.33
 590.90
 592.51
 593.66
 594.99
 595.99
 596.69
 597.42
 597.78
 598.30
 598.47
 598.62
 598.36
 597.93
 597.73
 597.26
 596.83
 596.15
 595.54
 594.78
 593.90
 593.21
 592.09
 590.98
 589.58
 588.13
 586.61
 584.95
 583.26
 581.53
 579.68
 577.61
 575.55
 573.49
 571.64
 569.78
 567.70
 565.63
 563.57
 561.31
 559.08
 556.77
 554.70
 552.23
 549.90
 547.31
 545.08
 542.87
 540.39
 538.15
 535.63
 533.47
 531.42
 529.48
 527.43
 525.29
 523.76
 521.78
 520.41
 518.86
 517.88
 516.79
 515.21
 499.79
 499.51
 500.26
 501.73
 503.46
 504.21
 504.99
 505.99
 507.29
 509.17
 511.45
 513.60
 515.64
 518.08
 521.57
 525.41
 529.67
 533.71
 537.63
 541.17
 544.55
 548.40
 552.76
 557.78
 562.50
 567.15
 571.44
 575.69
 580.43
 586.08
 593.07
 600.57
 608.61
 616.45
 623.40
 630.06
 636.36
 643.12
 650.51
 658.26
 664.23
 668.71
 670.84
 671.25
 670.73
 670.16
 669.04
 667.14
 663.92
 658.23
 651.11
 640.70
 631.53
 624.27
 617.65
 608.88
 601.49
 595.44
 570.20
 566.18
 562.86
 559.48
 557.83
 555.65
 551.68
 550.11
 548.10
 545.69
 544.62
 547.26
 548.43
 552.09
 557.38
 559.54
 560.59
 561.13
 560.92
 560.83
 561.34
 558.61
 557.55
 555.39
 552.85
 550.77
 547.69
 547.62
 546.26
 543.23
 542.41
 541.87
 540.88
 540.09
 538.68
 537.62
 536.15
 534.64
 533.18
 531.76
 531.08
 529.97
 529.98
 530.88
 531.79
 533.21
 534.09
 534.38
 534.04
 533.04
 532.14
 531.42
 529.58
 528.12
 527.01
 525.51
 525.26
 524.63
 507.77
 507.79
 493.01
 479.81
 468.53
 457.68
 447.01
 438.61
 430.95
 424.15
 417.84
 411.65
 406.39
 401.55
 397.29
 393.57
 390.51
 387.76
 385.68
 383.61
 381.95
 393.36
 403.82
 399.94
 396.55
 393.29
 390.46
 387.62
 384.75
 382.58
 381.02
 379.22
 377.80
 376.82
 375.44
 387.69
 384.82
 382.94
 380.55
 379.69
 378.32
 377.19
 376.47
 384.72
 383.35
 382.02
 393.51
 391.26
 401.24
 411.71
 422.04
 430.84
 439.65
 447.39
 453.35
 458.91
 462.82
 467.64
 471.58
 475.12
 477.61
 479.95
 482.65
 484.69
 486.22
 488.00
 489.10
 489.59
 490.03
 478.53
 467.87
 458.29
 450.26
 442.63
 435.27
 440.74
 434.07
 439.06
 438.95
 432.36
 426.12
 420.51
 415.76
 411.98
 408.59
 405.03
 402.12
 409.11
 412.10
 419.69
 426.42
 432.78
 438.90
 444.31
 449.68
 454.61
 459.25
 463.63
 467.66
 471.80
 475.62
 479.16
 482.44
 485.90
 489.61
 493.05
 496.84
 500.46
 504.11
 507.80
 511.72
 515.65
 519.18
 523.06
 526.56
 530.20
 533.48
 536.43
 539.19
 541.37
 543.23
 544.61
 545.95
 547.05
 547.85
 548.66
 548.90
 549.71
 550.54
 551.78
 553.01
 554.20
 555.68
 557.22
 558.69
 560.42
 562.18
 563.86
 565.58
 567.42
 568.88
 570.39
 571.75
 573.08
 574.27
 575.24
 576.32
 576.89
 577.60
 577.74
 578.06
 577.96
 577.66
 577.40
 576.86
 576.27
 575.34
 574.51
 573.76
 572.98
 572.38
 571.35
 570.41
 569.37
 568.43
 567.49
 566.64
 565.78
 564.60
 563.64
 562.48
 561.43
 560.38
 558.95
 557.65
 555.99
 554.69
 553.02
 551.52
 550.07
 548.46
 547.11
 545.40
 543.86
 542.08
 540.37
 538.53
 536.58
 535.02
 533.02
 531.32
 529.18
 527.27
 525.44
 523.40
 522.06
 520.55
 519.10
 517.69
 516.42
 515.08
 513.47
 512.02
 510.32
 508.69
 507.02
 505.42
 503.87
 501.89
 500.30
 498.77
 497.79
 497.11
 496.00
 494.20
 492.58
 491.12
 489.81
 489.43
 489.39
 489.95
 490.95
 492.06
 493.75
 495.28
 497.15
 499.03
 501.23
 504.11
 507.30
 511.17
 514.55
 518.10
 521.39
 524.75
 528.77
 533.90
 540.11
 546.60
 553.04
 558.93
 564.74
 570.96
 577.27
 584.24
 590.92
 597.63
 603.66
 608.10
 609.89
 607.80
 603.72
 599.95
 596.75
 591.88
 585.99
 580.69
 575.32
 569.39
 562.85
 557.36
 551.73
 546.06
 528.35
 524.72
 522.64
 519.78
 517.90
 517.11
 515.00
 513.80
 514.02
 499.82
 500.34
 502.00
 503.50
 503.45
 504.51
 504.76
 506.28
 509.15
 509.24
 511.71
 511.44
 511.20
 509.98
 509.98
 512.28
 512.05
 510.35
 511.61
 511.25
 511.23
 509.40
 508.76
 508.39
 507.75
 507.27
 506.55
 505.39
 504.85
 503.97
 503.17
 502.05
 500.65
 498.78
 497.61
 496.14
 484.13
 473.82
 464.44
 459.69
 461.92
 453.63
 453.27
 455.24
 458.12
 460.80
 463.02
 465.22
 466.70
 466.33
 467.40
 463.16
 454.94
 447.65
 451.48
 454.83
 457.15
 459.44
 451.49
 444.34
 448.21
 442.69
 436.52
 430.77
 424.99
 419.99
 415.49
 411.94
 408.95
 415.65
 423.19
 418.67
 413.80
 409.42
 406.38
 403.24
 399.92
 398.13
 395.61
 393.35
 389.62
 391.96
 389.76
 387.88
 387.80
 386.82
 386.33
 384.30
 383.97
 393.97
 404.28
 411.55
 418.59
 427.83
 433.25
 428.23
 433.70
 438.03
 442.53
 446.98
 451.28
 455.05
 457.65
 449.98
 443.38
 437.64
 441.38
 436.14
 430.83
 426.35
 421.61
 418.25
 418.02
 414.92
 412.33
 410.00
 407.90
 414.11
 411.20
 408.48
 405.93
 403.94
 402.34
 400.71
 399.34
 406.00
 405.70
 412.13
 418.12
 423.81
 428.83
 433.44
 437.80
 441.92
 445.63
 449.07
 452.36
 455.62
 458.86
 461.87
 465.29
 468.46
 471.61
 474.95
 478.06
 481.55
 485.10
 488.89
 492.60
 496.54
 501.08
 505.48
 510.23
 515.01
 519.70
 524.23
 528.61
 532.65
 536.28
 539.66
 542.79
 545.51
 548.06
 550.15
 551.94
 553.64
 555.68
 557.51
 559.46
 561.32
 563.28
 565.26
 567.13
 568.92
 570.42
 571.88
 573.49
 574.94
 576.45
 577.61
 578.94
 580.15
 581.24
 582.31
 583.18
 584.16
 584.85
 585.66
 586.30
 586.97
 587.67
 588.20
 588.98
 589.58
 590.33
 590.89
 591.50
 592.35
 592.72
 593.35
 593.81
 594.33
 594.60
 595.24
 595.71
 596.14
 596.73
 597.16
 597.94
 598.35
 598.91
 599.42
 599.88
 600.39
 600.65
 600.99
 601.09
 601.38
 601.44
 601.20
 600.98
 600.38
 599.94
 599.25
 598.42
 597.48
 596.63
 595.67
 594.50
 593.75
 592.48
 591.33
 590.20
 588.78
 587.50
 585.75
 584.07
 582.17
 580.05
 577.74
 575.37
 572.83
 570.05
 567.55
 564.59
 561.93
 559.24
 556.41
 553.67
 550.81
 548.33
 545.59
 543.13
 540.62
 538.06
 535.75
 533.38
 531.24
 529.02
 527.01
 525.11
 523.30
 521.47
 519.62
 517.96
 516.27
 514.84
 513.55
 512.00
 510.80
 509.32
 508.19
 507.17
 505.95
 505.16
 504.24
 503.32
 502.39
 501.75
 500.97
 500.27
 500.05
 499.64
 499.68
 499.61
 499.85
 499.96
 499.97
 500.47
 500.72
 501.25
 501.53
 502.37
 503.44
 504.59
 506.23
 508.01
 509.91
 512.12
 514.41
 516.57
 518.41
 519.97
 521.27
 522.74
 524.47
 526.72
 529.45
 532.01
 534.70
 537.03
 539.73
 542.66
 546.09
 549.98
 554.18
 558.47
 563.02
 568.42
 573.78
 579.80
 586.02
 592.22
 598.39
 604.26
 609.03
 612.43
 614.68
 616.22
 615.19
 611.57
 604.72
 596.85
 588.66
 581.39
 574.26
 567.43
 560.59
 541.33
 537.00
 533.00
 529.80
 526.42
 523.87
 521.19
 520.87
 505.78
 506.40
 508.46
 508.92
 508.93
 511.43
 513.39
 516.45
 519.11
 521.59
 524.64
 525.47
 525.22
 524.50
 522.95
 523.66
 520.59
 520.53
 520.28
 520.95
 521.66
 525.39
 528.65
 532.69
 537.62
 541.46
 544.81
 546.73
 547.96
 547.86
 546.77
 545.00
 542.70
 540.03
 536.92
 533.73
 530.56
 527.70
 525.13
 522.82
 521.64
 521.07
 521.27
 520.54
 519.49
 517.34
 515.10
 513.19
 499.07
 486.57
 474.21
 462.59
 452.83
 444.65
 437.38
 431.04
 438.44
 431.70
 437.13
 429.81
 423.33
 417.60
 412.54
 406.79
 403.31
 399.28
 396.45
 394.20
 390.58
 402.22
 411.80
 419.92
 429.13
 423.42
 431.48
 438.53
 443.27
 449.05
 454.44
 459.80
 463.72
 455.35
 447.71
 440.84
 444.86
 448.77
 452.39
 455.75
 458.18
 460.96
 453.16
 445.75
 439.07
 433.07
 427.66
 422.49
 418.14
 414.33
 410.80
 407.72
 405.25
 402.92
 401.13
 406.32
 413.28
 420.06
 426.05
 431.55
 436.99
 441.59
 446.13
 450.32
 454.19
 457.97
 461.27
 464.54
 467.49
 470.44
 472.90
 475.51
 478.26
 481.13
 484.32
 487.19
 490.57
 493.71
 497.34
 501.21
 505.29
 509.66
 513.69
 518.02
 522.42
 526.88
 531.29
 535.66
 540.09
 543.69
 546.92
 549.72
 551.85
 553.77
 554.89
 556.00
 556.50
 557.65
 559.09
 560.48
 561.83
 563.25
 564.92
 566.43
 567.89
 569.00
 570.20
 571.38
 572.64
 574.18
 575.26
 576.73
 577.96
 579.06
 580.26
 581.03
 582.03
 582.83
 583.44
 583.60
 583.84
 583.95
 583.86
 583.87
 583.79
 584.01
 584.01
 584.21
 584.49
 584.84
 585.35
 585.92
 586.83
 587.54
 588.39
 589.25
 590.23
 591.40
