 387.96
 387.46
 387.02
 387.01
 386.51
 386.26
 386.04
 385.63
 388.49
 387.84
 387.96
 387.46
 387.02
 387.01
 386.51
 386.26
 386.04
 385.63
 71.08
 101.47
 128.72
 153.35
 175.62
 195.46
 213.71
 229.74
 244.16
 257.25
 269.12
 279.81
 289.53
 298.18
 304.96
 312.06
 318.26
 323.93
 328.94
 333.64
 336.88
 340.79
 344.31
 347.48
 350.33
 353.00
 354.50
 356.95
 358.85
 363.77
 364.89
 366.10
 367.49
 367.54
 369.59
 369.23
 370.11
 371.40
 371.86
 372.37
 373.03
 373.43
 374.19
 374.47
 374.72
 376.55
 376.59
 376.94
 377.34
 377.31
 377.88
 377.89
 378.00
 381.50
 381.15
 381.24
 381.31
 381.08
 382.77
 382.40
 382.16
 385.94
 385.05
 384.84
 384.46
 383.91
 384.82
 384.44
 383.19
 385.97
 385.18
 385.06
 384.75
 384.38
 387.44
 386.70
 386.03
 385.92
 385.33
 384.80
 384.52
 384.17
 384.55
 384.20
 383.98
 384.88
 384.49
 384.34
 384.61
 384.25
 387.12
 386.71
 386.24
 386.51
 385.86
 384.38
 384.34
 383.01
 386.50
 385.15
 384.94
 386.04
 385.64
 385.78
 387.30
 386.67
 391.30
 390.37
 389.53
 392.68
 391.51
 390.76
 389.99
 389.19
 388.67
 388.00
 387.40
 387.56
 386.91
 386.71
 386.34
 385.91
 386.02
 385.72
 385.74
 386.67
 385.40
 385.46
 384.22
 383.99
 388.80
 388.12
 387.50
 389.25
 388.53
 388.58
 388.82
 388.24
 395.41
 394.27
 393.24
 398.42
 396.58
 395.62
 394.46
 393.21
 394.79
 393.61
 392.55
 391.80
 390.92
 390.42
 389.68
 389.11
 389.10
 388.79
 388.21
 386.69
 386.32
 385.19
 385.07
 384.16
 383.75
 383.67
 383.71
 384.03
 383.93
 384.24
 384.11
 384.00
 384.30
 384.27
 384.25
 384.52
 384.37
 384.53
 384.68
 384.61
 387.55
 387.19
 386.88
 388.29
 387.76
 387.68
 386.31
 386.08
 386.77
 386.50
 385.75
 386.27
 385.25
 386.12
 385.01
 385.01
 390.61
 389.95
 389.45
 389.51
 388.86
 388.87
 388.38
 387.94
 389.65
 389.19
 389.17
 389.25
 388.73
 388.65
 388.39
 388.05
 389.24
 388.82
 388.54
 388.58
 388.23
 388.40
 388.36
 388.03
 389.42
 388.98
 388.78
 387.90
 387.61
 387.75
 387.68
 387.81
 389.13
 387.72
 387.64
 388.38
 388.14
 388.93
 388.83
 388.55
 393.00
 392.40
 391.96
 392.06
 391.56
 393.10
 392.59
 392.03
 392.73
 392.05
 391.75
 391.47
 391.13
 392.11
 391.90
 391.41
 391.27
 390.74
 389.77
 389.99
 388.49
 389.34
 389.21
 389.09
 393.48
 392.93
 392.44
 392.69
 392.13
 392.51
 392.26
 392.04
 394.63
 393.97
 393.67
 392.70
 392.23
 392.41
 392.17
 391.95
 395.46
 394.81
 394.33
 394.20
 393.68
 393.51
 393.16
 392.74
 393.37
 392.23
 392.21
 391.99
 391.69
 390.62
 390.56
 390.50
 390.75
 390.68
 390.81
 390.63
 390.57
 391.21
 391.09
 391.08
 391.47
 391.22
 391.20
 391.48
 391.33
 391.90
 391.81
 391.73
 392.06
 391.95
 391.96
 392.26
 392.03
 392.83
 392.75
 392.67
 391.51
 391.45
 390.51
 390.86
 390.17
 390.86
 390.87
 390.88
 391.69
 391.63
 391.66
 391.90
 391.81
 392.13
 392.11
 392.10
 392.69
 392.72
 392.75
 392.78
 392.70
 393.03
 392.93
 392.93
 393.24
 393.22
 393.39
 393.65
 393.59
 393.83
 393.75
 393.07
 393.77
 393.69
 392.82
 391.94
 392.04
 395.84
 395.76
 395.58
 396.22
 396.00
 396.10
 396.09
 395.88
 397.29
 396.96
 396.87
 397.18
 396.86
 396.88
 396.89
 396.70
 397.63
 397.47
 397.22
 397.30
 397.17
 397.25
 397.23
 397.50
 397.85
 397.07
 396.96
 396.06
 395.96
 395.16
 395.55
 395.19
 396.07
 395.97
 396.07
 396.36
 396.33
 400.59
 400.13
 399.72
 401.05
 400.54
 400.19
 401.37
 400.73
 400.66
 400.29
 399.86
 399.98
 399.48
 399.03
 398.63
 397.87
 397.18
 396.76
 395.99
 403.69
 410.72
 417.85
 424.06
 429.06
 434.35
 439.31
 443.68
 445.62
 446.25
 444.33
 442.50
 440.85
 439.46
 438.12
 437.00
 435.80
 434.92
 434.03
 433.13
 432.41
 431.77
 432.00
 433.50
 436.05
 439.74
 443.87
 449.28
 455.15
 462.34
 469.80
 478.72
 487.55
 496.50
 505.85
 515.56
 524.91
 534.22
 543.19
 551.37
 560.74
 569.36
 577.43
 584.58
 590.63
 596.16
 601.35
 605.81
 609.93
 613.44
 616.49
 619.44
 621.70
 623.73
 625.66
 627.09
 628.48
 629.83
 631.15
 632.34
 633.10
 633.89
 634.50
 635.05
 635.65
 636.18
 636.36
 636.53
 636.57
 636.42
 636.08
 635.47
 634.62
 633.26
 631.63
 629.67
 627.40
 625.16
 622.65
 619.88
 617.29
 614.66
 612.00
 610.00
 608.10
 607.39
 606.85
 605.96
 605.47
 604.82
 603.04
 601.64
 600.37
 599.53
 598.58
 597.72
 597.85
 598.57
 599.91
 601.22
 602.30
 603.47
 605.22
 608.00
 612.40
 617.66
 624.09
 630.78
 637.40
 644.36
 648.13
 653.22
 658.99
 664.59
 669.73
 673.36
 675.13
 676.41
 677.97
 679.17
 679.66
 677.99
 674.39
 668.85
 662.27
 656.84
 651.06
 646.15
 640.14
 634.02
 628.22
 622.90
 616.81
 611.43
 605.18
 598.67
 593.50
 587.85
 582.76
 578.19
 571.27
 567.64
 556.18
 534.26
 533.43
 513.79
 515.21
 516.59
 515.83
 516.85
 517.46
 517.92
 518.83
 502.04
 503.74
 505.46
 489.82
 493.24
 495.71
 497.74
 500.97
 502.47
 504.82
 507.54
 508.59
 510.53
 511.78
 512.50
 513.65
 507.18
 508.06
 508.96
 493.46
 495.62
 481.75
 484.38
 487.04
 474.04
 477.53
 481.08
 484.07
 487.56
 490.31
 493.28
 494.85
 484.46
 487.12
 489.41
 476.57
 464.61
 453.65
 443.88
 434.40
 426.26
 418.23
 411.81
 405.63
 400.16
 394.95
 390.35
 386.22
 382.60
 379.44
 376.39
 373.85
 373.07
 375.86
 383.27
 389.15
 392.73
 396.06
 399.15
 401.94
 404.54
 406.69
 408.62
 410.86
 412.37
 413.74
 415.46
 418.02
 421.61
 426.15
 431.14
 436.82
 442.94
 449.75
 456.77
 463.80
 470.92
 478.02
 485.12
 493.21
 501.19
 508.87
 516.98
 523.88
 529.90
 535.51
 540.56
 545.40
 550.26
 554.33
 558.00
 561.30
 564.27
 566.94
 568.85
 570.46
 571.72
 571.55
 570.69
 568.82
 565.94
 561.85
 557.26
 552.34
 547.40
 542.56
 538.01
 533.40
 529.26
 524.84
 519.95
 514.96
 509.86
 505.08
 500.27
 494.44
 490.00
 488.10
 489.19
 494.67
 500.80
 507.62
 514.36
 520.52
 525.77
 530.59
 535.93
 541.94
 549.15
 557.13
 564.72
 571.75
 578.97
 586.28
 594.55
 603.19
 611.77
 618.80
 624.72
 629.65
 634.48
 638.43
 642.19
 645.17
 645.85
 644.47
 641.02
 637.92
 635.93
 632.53
 628.28
 624.05
 618.95
 614.75
 609.98
 605.28
 600.95
 595.56
 591.10
 586.79
 561.11
 558.50
 545.35
 524.72
 525.54
 505.89
 508.40
 510.46
 493.21
 497.09
 481.88
 467.70
 473.83
 478.94
 469.45
 469.70
 457.23
 464.51
 470.96
 476.06
 481.56
 485.90
 490.01
 493.71
 496.14
 498.73
 493.35
 479.02
 482.62
 470.95
 476.06
 480.35
 483.02
 486.62
 489.25
 491.73
 494.36
 495.92
 496.73
 496.16
 482.14
 469.63
 457.96
 447.27
 437.64
 428.98
 421.18
 414.16
 407.94
 402.55
 397.80
 393.52
 390.06
 386.76
 383.98
 381.48
 379.24
 377.21
 375.39
 373.75
 372.58
 371.62
 370.66
 369.89
 368.80
 367.22
 366.70
 365.63
 372.47
 376.42
 389.38
 401.34
 412.51
 423.16
 433.24
 442.82
 452.43
 461.69
 470.92
 479.83
 488.65
 497.68
 506.71
 515.64
 524.98
 533.98
 542.88
 551.69
 560.22
 568.40
 576.26
 583.74
 590.86
 597.48
 603.63
 609.17
 614.45
 619.00
 623.50
 627.35
 631.32
 634.59
 637.83
 640.84
 643.46
 645.71
 647.84
 649.86
 651.67
 653.21
 654.78
 656.01
 657.11
 657.80
 658.42
 658.57
 658.72
 658.44
 657.70
 656.33
 654.40
 652.26
 649.83
 647.35
 644.71
 642.04
 639.04
 635.93
 632.94
 629.35
 625.71
 621.84
 618.16
 614.64
 611.18
 608.06
 605.15
 602.54
 600.08
 597.68
 595.61
 593.55
 591.69
 589.92
 588.03
 586.23
 584.31
 582.17
 580.16
 577.74
 575.57
 573.31
 571.18
 568.86
 566.58
 564.72
 563.25
 561.82
 560.54
 559.29
 558.06
 557.35
 556.22
 555.19
 554.17
 552.76
 551.98
 551.28
 550.56
 550.00
 549.30
 548.67
 548.40
 548.16
 548.35
 548.51
 548.26
 548.23
 548.11
 547.80
 547.92
 547.93
 548.04
 548.73
 548.96
 549.36
 549.53
 549.97
 550.08
 550.07
 549.96
 549.87
 549.58
 549.62
 549.66
 549.79
 549.91
 549.92
 550.13
 550.42
 550.58
 551.02
 551.22
 551.59
 552.13
 552.62
 553.46
 554.31
 555.28
 556.05
 556.65
 557.08
 557.68
 557.81
 558.63
 559.66
 560.90
 562.61
 564.15
 565.03
 566.13
 567.72
 571.24
 575.72
 581.05
 587.44
 592.60
 596.44
 600.60
 605.84
 612.35
 619.12
 625.61
 632.24
 637.42
 640.58
 643.02
 645.72
 649.15
 651.73
 653.66
 655.29
 654.66
 652.30
 649.47
 646.52
 644.47
 642.12
 639.21
 636.79
 632.51
 628.16
 623.74
 617.57
 612.21
 606.09
 600.38
 581.04
 555.24
 554.61
 554.25
 531.73
 532.86
 524.77
 505.29
 508.66
 491.50
 496.15
 500.73
 484.96
 490.86
 495.28
 479.45
 485.20
 470.48
 470.74
 477.06
 463.36
 470.82
 476.94
 482.34
 488.21
 492.39
 496.85
 500.87
 503.28
 506.75
 509.58
 511.62
 514.66
 515.99
 517.89
 519.70
 517.53
 519.18
 519.96
 502.86
 505.18
 488.86
 492.07
 495.07
 479.86
 484.07
 470.17
 458.05
 465.15
 470.73
 476.46
 481.41
 475.77
 480.89
 485.00
 488.70
 492.43
 494.79
 497.21
 499.39
 484.05
 487.15
 472.73
 460.36
 449.12
 439.31
 430.78
 423.20
 416.28
 410.25
 404.83
 399.94
 395.65
 391.79
 388.31
 385.28
 382.65
 380.38
 378.25
 376.52
 374.77
 373.09
 371.68
 370.51
 369.46
 368.82
 367.63
 366.67
 365.80
 365.02
 364.52
 363.77
 363.49
 362.54
 362.29
 361.96
 362.06
 362.26
 363.43
 376.59
 388.53
 399.78
 410.40
 420.16
 429.34
 438.01
 446.11
 454.20
 461.68
 469.31
 476.98
 484.68
 492.41
 499.87
 507.38
 515.05
 523.04
 531.14
 539.32
 547.49
 555.34
 563.31
 571.28
 579.05
 586.34
 593.51
 600.96
 607.26
 613.34
 619.00
 624.50
 629.55
 633.90
 638.11
 641.90
 645.21
 648.49
 651.34
 654.00
 656.50
 658.75
 660.88
 662.89
 664.40
 665.86
 667.07
 668.07
 668.56
 668.50
 668.45
 667.81
 667.03
 665.62
 663.96
 661.57
 658.71
 655.34
 651.80
 648.02
 644.02
 639.92
 635.63
 631.46
 627.12
 622.81
 618.73
 614.55
 610.70
 607.13
 603.32
 600.08
 597.48
 595.23
 593.30
 591.67
 590.01
 588.41
 586.67
 584.70
 582.93
 581.14
 579.82
 578.64
 577.38
 576.14
 574.82
 573.54
 573.09
 572.78
 573.10
 573.29
 573.66
 574.40
 574.66
 574.99
 575.59
 576.13
 577.22
 578.40
 579.76
 581.28
 582.85
 584.97
 587.57
 590.51
 594.56
 599.11
 604.20
 609.48
 614.03
 618.23
 622.50
 626.25
 630.03
 632.72
 635.15
 637.64
 638.17
 638.06
 636.85
 634.47
 631.62
 628.46
 625.41
 622.27
 618.34
 615.01
 611.41
 607.07
 603.46
 599.21
 595.49
 592.34
 588.31
 585.28
 581.15
 556.44
 554.09
 531.88
 511.79
 494.11
 478.00
 463.90
 451.11
 439.60
 436.34
 426.61
 418.15
 429.23
 420.41
 431.17
 439.25
 430.13
 439.61
 429.55
 438.90
 447.71
 454.84
 462.35
 468.42
 464.18
 469.96
 457.76
 459.69
 465.72
 453.85
 460.36
 449.62
 439.56
 447.51
 437.66
 429.19
 437.77
 429.09
 437.38
 429.25
 421.82
 430.54
 422.79
 419.11
 428.60
 420.34
 430.00
 437.90
 445.51
 453.16
 459.94
 466.35
 472.22
 476.79
 481.11
 468.50
 457.55
 448.50
 439.65
 431.38
 423.94
 416.95
 410.66
 404.29
 398.56
 393.20
 388.18
 383.77
 379.79
 376.31
 373.48
 370.73
 368.36
 366.02
 363.42
 361.58
 360.02
 358.62
 356.86
 355.77
 354.99
 354.19
 353.47
 353.03
 352.42
 352.08
 351.67
 351.31
 357.78
 373.70
 386.43
 399.39
 410.95
 420.95
 430.46
 439.31
 447.48
 455.03
 461.73
 468.06
 473.95
 478.96
 483.56
 487.80
 492.12
 496.81
 501.33
 505.90
 510.81
 515.53
 520.87
 526.29
 532.06
 538.25
 544.63
 551.46
 558.42
 565.18
 572.26
 579.03
 585.53
 591.88
 597.89
 603.70
 609.43
 614.49
 619.44
 624.19
 628.27
 632.25
 635.52
 638.67
 641.50
 644.25
 646.73
 648.95
 651.26
 653.23
 655.01
 656.61
 658.15
 659.43
 660.59
 661.83
 662.75
 663.47
 663.83
 663.94
 663.75
 663.17
 662.36
 661.12
 659.21
 657.69
 655.72
 653.35
 650.91
 648.32
 645.69
 642.82
 639.74
 636.76
 633.69
 630.52
 627.37
 624.13
 621.02
 617.62
 614.55
 611.40
 608.26
 605.03
 602.23
 599.21
 596.29
 593.76
 591.58
 589.42
 587.58
 585.92
 584.73
 583.56
 582.70
 581.63
 580.77
 579.99
 578.89
 577.80
 576.92
 575.83
 575.25
 574.62
 574.36
 574.22
 573.80
 573.42
 573.58
 573.72
 574.35
 575.11
 576.20
 577.18
 577.66
 578.60
 579.84
 581.45
 583.21
 584.39
 585.05
 585.54
 586.19
 587.47
 589.12
 591.01
 594.31
 597.78
 600.90
 603.61
 605.75
 608.77
 612.40
 616.16
 620.84
 625.46
 629.91
 633.72
 636.05
 638.24
 639.62
 640.36
 641.32
 640.19
 637.37
 634.23
 631.31
 629.38
 626.84
 622.76
 619.48
 615.33
 611.60
 608.04
 603.74
 600.36
 596.53
 591.77
 588.50
 576.95
 568.55
 566.40
 542.66
 542.59
 542.23
 521.31
 523.48
 504.53
 488.38
 493.44
 477.70
 480.83
 466.74
 453.57
 461.61
 449.15
 437.24
 446.31
 434.88
 425.69
 417.02
 409.02
 420.52
 412.37
 405.33
 417.40
 409.76
 421.38
 421.34
 413.51
 424.86
 417.07
 427.77
 437.69
 430.72
 440.45
 449.00
 456.60
 464.24
 470.72
 476.45
 482.10
 485.49
 489.14
 491.73
 476.86
 469.47
 456.52
 446.27
 436.64
 428.18
 420.96
 414.27
 407.74
 402.66
 397.70
 393.33
 389.50
 385.85
 382.66
 379.50
 376.75
 374.37
 372.03
 369.93
 367.94
 366.14
 364.53
 362.78
 361.20
 359.88
 358.29
 357.26
 356.04
 355.13
 354.52
 353.97
 353.77
 353.09
 353.38
 367.45
 381.70
 394.43
 406.59
 417.33
 427.00
 436.10
 443.99
 451.49
 458.24
 464.42
 470.47
 476.23
 482.10
 488.09
 494.08
 500.28
 506.75
 513.27
 520.25
 527.32
 534.49
 541.74
 548.87
 556.18
 563.36
 570.33
 577.59
 584.33
 590.80
 596.92
 603.03
 608.23
 613.00
 617.50
 621.65
 625.49
 629.14
 632.92
 636.53
 639.78
 643.10
 646.09
 649.18
 652.06
 654.16
 656.54
 658.59
 660.53
 662.38
 664.14
 666.02
 667.82
 669.54
 671.29
 672.66
 673.69
 674.82
 675.74
 676.57
 677.51
 678.26
 679.23
 679.71
 679.84
 679.85
 679.77
 679.49
 678.94
 678.15
 677.23
 676.11
 674.90
 673.61
 672.05
 670.54
 668.79
 666.71
 664.64
 662.38
 659.84
 657.15
 654.04
 651.03
 647.83
 644.55
 641.19
 637.77
 634.60
 631.54
 628.38
 625.44
 622.40
 619.26
 616.43
 613.49
 610.54
 626.29
 577.16
 533.04
 493.44
 461.19
 429.48
 400.03
 373.42
 349.38
 327.74
 308.37
 290.93
 275.24
 261.02
 248.21
 307.49
 360.64
 408.68
 451.71
 490.34
 525.41
 556.97
 585.07
 610.56
 633.51
 654.16
 672.64
 689.18
 704.16
 717.64
 729.68
 740.61
 750.35
 759.11
 767.10
 774.19
 780.47
 786.23
 791.40
 795.86
 800.18
 803.96
 807.46
 810.52
 813.36
 815.83
 818.25
 820.12
 821.91
 823.52
 824.97
 826.27
 827.44
 827.80
 816.42
 794.68
 743.21
 700.79
 709.21
 656.99
 605.69
 595.22
 551.20
 511.38
 476.74
 445.47
 417.42
 393.08
 371.47
 351.92
 335.13
 320.62
 307.56
 296.40
 286.66
 277.49
 270.24
 264.12
 258.71
 254.24
 250.61
 246.65
 244.19
 242.37
 240.83
 239.95
 239.35
 238.82
 238.94
 238.84
 239.16
 239.64
 240.08
 240.97
 241.77
 242.80
 244.02
 245.21
 246.59
 247.93
 249.24
 250.82
 252.23
 253.71
 255.54
 257.09
 258.88
 260.49
 261.44
 263.20
 265.28
 267.25
 269.32
 271.09
 272.88
 274.59
 276.04
 278.23
 280.31
 282.48
 288.73
 291.36
 301.22
 303.80
 309.22
 334.50
 357.75
 378.67
 397.61
 414.84
 430.56
 444.70
 457.13
 468.52
 478.77
 488.09
 496.88
 505.09
 512.78
 520.11
 527.30
 534.37
 541.43
 547.99
 554.89
 561.70
 568.63
 575.57
 582.81
 589.83
 596.95
 603.85
 610.87
 617.58
 624.32
 631.09
 637.88
 644.59
 651.33
 657.90
 664.11
 669.90
 675.51
 681.16
 686.34
 691.11
 695.70
 699.63
 703.16
 706.45
 709.60
 712.14
 714.23
 716.11
 718.10
 719.29
 720.26
 720.63
 720.67
 720.50
 719.85
 719.07
 717.96
 716.46
 715.02
 712.92
 710.82
 708.54
 705.99
 703.29
 700.46
 697.21
 694.19
 690.77
 687.20
 683.48
 679.53
 675.48
 671.73
 668.26
 664.93
 661.54
 658.28
 655.25
 652.33
 650.00
 647.60
 645.24
 643.01
 640.71
 638.44
 636.50
 634.15
 632.33
 630.60
 628.94
 627.35
 625.71
 624.34
 623.11
 622.40
 621.46
 620.41
 619.77
 620.19
 621.17
 622.76
 625.28
 627.95
 631.46
 635.51
 640.56
 647.10
 654.09
 661.28
 667.96
 674.26
 680.73
 687.56
 694.80
 701.82
 707.74
 711.97
 715.07
 717.66
 720.40
 722.56
 724.10
 724.49
 723.34
 721.01
 717.31
 713.48
 710.63
 708.37
 707.23
 707.01
 707.11
 707.40
 708.26
 708.43
 708.49
 706.94
 703.34
 698.41
 691.27
 685.14
 677.23
 671.91
 667.81
 663.33
 659.40
 655.46
 651.51
 648.16
 644.95
 641.75
 639.48
 636.53
 633.58
 630.32
 627.29
 624.66
 621.79
 619.41
 617.47
 615.62
 613.66
 611.90
 609.51
 608.16
 606.24
 604.62
 603.15
 600.24
 598.91
 596.92
 595.73
 594.76
 594.38
 593.44
 593.30
 592.97
 592.57
 592.12
 591.20
 590.48
 589.54
 588.88
 588.99
 588.99
 588.79
 588.42
 587.57
 586.92
 586.52
 585.77
 585.49
 584.35
 583.11
 581.50
 553.65
 528.68
 506.22
 485.89
 466.91
 450.41
 435.17
 422.06
 409.75
 399.58
 390.32
 382.09
 374.48
 367.73
 361.26
 355.53
 350.08
 345.37
 341.73
 352.46
 374.91
 395.42
 414.18
 431.56
 447.31
 461.88
 475.39
 488.35
 500.81
 512.93
 524.44
 535.80
 546.62
 557.35
 568.02
 578.92
 590.13
 601.31
 612.38
 623.34
 633.41
 643.07
 652.36
 660.92
 668.83
 675.85
 682.46
 688.62
 693.66
 698.39
 702.55
 706.10
 709.39
 711.95
 714.05
 716.05
 717.44
 718.70
 719.53
 719.98
 720.18
 719.96
 719.56
 718.91
 718.32
 717.59
 716.43
 715.08
 713.78
 712.30
 710.67
 709.20
 707.18
 705.26
 703.64
 701.67
 699.81
 698.03
 696.42
 694.78
 693.10
 691.49
 689.74
 687.67
 685.40
 682.76
 679.89
 676.80
 673.62
 670.36
 666.92
 663.53
 660.17
 657.06
 654.05
 651.35
 648.71
 646.14
 643.93
 641.73
 639.86
 637.87
 636.09
 634.58
 633.02
 631.82
 630.64
 628.97
 627.38
 625.64
 624.07
 622.57
 620.91
 619.42
 618.18
 616.76
 615.58
 614.63
 613.96
 613.47
 613.12
 612.61
 612.15
 611.63
 611.67
 611.80
 612.52
 613.07
 613.66
 614.10
 614.59
 616.03
 618.33
 621.59
 625.43
 628.89
 631.50
 633.75
 636.78
 640.90
 646.41
 652.97
 659.07
 664.26
 668.44
 672.39
 676.85
 681.57
 686.21
 690.19
 692.77
 693.89
 694.10
 694.69
 696.22
 697.50
 697.15
 695.84
 694.75
 693.28
 691.95
 690.96
 689.86
 688.37
 687.04
 685.73
 684.86
 683.57
 681.52
 679.46
 677.42
 676.88
 680.69
 683.62
 685.96
 687.56
 688.61
 688.65
 687.68
 685.71
 682.34
 677.61
 672.05
 631.84
 595.76
 563.48
 535.93
 545.94
 556.45
 534.40
 524.66
 531.40
 538.76
 545.48
 550.73
 555.86
 540.47
 514.93
 495.33
 474.30
 456.47
 443.92
 429.13
 444.12
 429.51
 445.56
 460.40
 473.86
 485.87
 496.89
 506.40
 515.26
 522.83
 529.55
 535.99
 541.69
 546.73
 551.35
 555.02
 558.62
 561.65
 563.99
 566.89
 569.10
 571.39
 572.65
 545.39
 548.65
 549.18
 524.06
 501.76
 481.18
 463.06
 447.06
 432.55
 421.30
 422.17
 437.25
 451.03
 458.32
 469.29
 466.86
 450.58
 435.92
 422.63
 410.76
 400.09
 390.28
 381.65
 373.89
 367.10
 360.89
 354.90
 349.61
 344.35
 340.01
 335.41
 331.77
 328.19
 325.27
 322.75
 320.57
 318.61
 316.95
 315.56
 314.40
 313.26
 312.44
 311.79
 310.51
 310.06
 309.66
 309.49
 310.24
 313.62
 339.46
 363.01
 384.61
 404.25
 422.52
 439.47
 455.72
 470.95
 485.46
 499.51
 513.26
 526.83
 540.15
 553.34
 566.30
 579.17
 591.65
 603.89
 615.60
 626.74
 637.27
 646.84
 655.76
 663.78
 671.00
 677.40
 682.96
 687.87
 691.98
 695.68
 698.71
 701.14
 703.23
 705.00
 706.40
 707.86
 708.98
 709.98
 710.88
 711.59
 712.33
 713.10
 713.19
 713.27
 712.84
 711.96
 710.76
 709.09
 706.88
 704.39
 701.45
 698.41
 695.17
 691.65
 688.08
 684.58
 680.92
 677.23
 673.50
 669.75
 666.28
 662.65
 659.29
 655.76
 652.68
 649.81
 646.83
 644.05
 641.24
 638.52
 636.17
 633.85
 631.77
 629.99
 628.09
 626.38
 624.64
 623.08
 622.07
 620.66
 619.30
 618.17
 617.15
 615.94
 614.84
 613.36
 612.02
 610.52
 609.27
 608.34
 607.31
 606.68
 606.31
 606.28
 606.35
 606.41
 606.87
 607.99
 609.19
 610.77
 612.69
 615.02
 617.92
 621.63
 626.57
 631.91
 637.52
 643.67
 649.30
 654.97
 661.47
 668.83
 676.84
 685.06
 692.35
 698.92
 704.23
 709.20
 713.78
 717.80
 720.82
 722.24
 722.12
 721.71
 721.44
 720.69
 718.82
 715.04
 711.14
 707.52
 703.77
 699.69
 695.62
 691.26
 687.44
 684.09
 681.58
 679.62
 678.06
 676.56
 675.10
 672.89
 672.80
 673.12
 671.01
 668.21
 665.19
 661.87
 656.78
 651.80
 647.52
 643.47
 639.92
 636.93
 634.34
 631.90
 629.61
 627.25
 624.53
 590.67
 560.31
 533.08
 508.37
 486.33
 466.50
 457.45
 470.60
 481.64
 492.58
 502.22
 510.80
 518.62
 502.66
 509.29
 514.96
 503.17
 511.25
 518.32
 525.09
 531.18
 536.56
 541.21
 542.09
 517.58
 495.72
 476.25
 458.62
 466.16
 449.65
 447.28
 460.75
 444.98
 436.58
 422.82
 410.44
 418.90
 416.51
 405.56
 394.00
 384.80
 376.02
 368.32
 361.49
 355.44
 349.89
 345.00
 340.70
 336.83
 333.35
 330.02
 327.01
 324.51
 322.16
 319.94
 318.05
 316.45
 315.00
 313.00
 312.00
 311.00
 309.90
 308.91
 307.92
 307.33
 306.69
 306.23
 305.80
 304.82
 304.64
 303.88
 303.89
 303.50
 303.75
 303.87
 304.29
 317.66
 338.39
 361.35
 382.52
 401.47
 418.92
 435.03
 449.62
 463.16
 475.45
 487.20
 498.08
 508.27
 517.95
 527.25
 536.03
 544.32
 552.49
 560.44
 568.70
 576.93
 585.34
 593.80
 602.22
 610.90
 619.51
 627.66
 635.69
 643.42
 650.98
 657.98
 664.48
 670.84
 676.75
 682.38
 687.44
 691.80
 695.92
 699.52
 702.77
 705.79
 708.52
 711.06
 713.56
 715.70
 717.73
 719.96
 721.76
 723.69
 725.72
 727.55
 729.49
 731.14
 732.83
 734.75
 736.27
 737.64
 738.88
 740.09
 740.98
 741.78
 742.31
 742.67
 742.71
 742.84
 742.55
 742.10
 741.69
 740.82
 740.04
 738.83
 737.75
 736.47
 735.13
 733.81
 732.53
 731.08
 729.97
 728.57
 727.12
 725.71
 724.03
 722.43
 720.69
 718.52
 716.27
 713.84
 711.26
 708.73
 706.16
 703.34
 700.71
 697.94
 695.24
 692.32
 689.29
 686.36
 683.42
 680.58
 677.82
 675.04
 672.14
 669.32
 666.39
 663.45
 660.51
 657.66
 655.19
 652.77
 650.69
 648.92
 647.43
 645.99
 644.19
 642.67
 640.90
 638.91
 637.12
 635.31
 633.88
 632.59
 631.53
 630.98
 631.38
 632.54
 634.49
 636.34
 638.41
 640.76
 644.49
 649.94
 656.55
 664.09
 672.28
 679.55
 686.00
 692.80
 699.92
 707.53
 715.37
 722.64
 729.37
 734.84
 738.95
 741.66
 744.09
 745.58
 746.22
 745.80
 743.82
 740.74
 737.07
 732.86
 727.87
 722.19
 716.27
 711.24
 707.12
 706.10
 704.09
 700.88
 696.10
 692.39
 687.75
 685.57
 681.32
 675.78
 670.11
 664.50
 626.15
 624.13
 621.82
 587.94
 557.74
 530.47
 505.92
 483.93
 464.04
 445.33
 429.50
 414.55
 402.09
 389.79
 379.91
 371.12
 363.10
 385.39
 398.65
 387.79
 379.51
 371.26
 363.43
 380.19
 400.97
 419.47
 409.43
 397.78
 387.51
 378.25
 369.93
 362.34
 355.50
 349.45
 344.21
 339.29
 334.66
 330.79
 327.61
 324.75
 322.08
 319.57
 317.31
 315.28
 312.65
 310.99
 309.59
 308.23
 306.91
 305.92
 305.12
 304.41
 303.57
 302.91
 302.32
 301.59
 301.03
 300.63
 300.27
 299.84
 299.55
 299.40
 299.26
 299.03
 298.93
 298.94
 298.84
 299.16
 299.34
 299.61
 299.85
 299.46
 299.72
 299.45
 299.70
 299.53
 299.78
 299.90
 300.11
 300.40
 299.96
 300.66
 301.10
 301.49
 302.14
 302.32
 303.79
 311.61
 325.55
 350.10
 372.69
 392.92
 411.93
 429.03
 444.93
 459.54
 473.18
 486.27
 498.54
 510.18
 521.57
 532.41
 543.07
 553.76
 564.19
 574.47
 584.62
 594.56
 604.40
 613.96
 623.17
 631.95
 640.35
 648.42
 656.08
 663.57
 670.81
 677.33
 683.40
 689.06
 694.15
 698.84
 703.25
 707.13
 710.82
 714.03
 716.83
 719.55
 721.59
 723.43
 725.09
 726.48
 727.83
 728.95
 730.05
 731.15
 732.13
 733.22
 734.20
 734.78
 735.50
 735.95
 736.06
 736.15
 735.94
 735.54
 734.89
 733.90
 732.71
 731.34
 729.60
 727.74
 725.47
 723.22
 721.00
 718.80
 716.52
 713.97
 711.57
 709.11
 706.50
 703.85
 701.27
 698.24
 695.32
 692.18
 688.97
 685.77
 682.49
 679.34
 676.31
 673.08
 669.97
 666.97
 663.78
 660.70
 657.83
 654.95
 652.15
 649.34
 646.70
 644.23
 641.91
 639.92
 638.03
 636.72
 635.45
 634.21
 633.19
 632.27
 631.44
 631.20
 630.38
 629.54
 628.29
 626.96
 625.96
 625.16
 625.05
 625.54
 626.89
 628.90
 631.61
 635.05
 639.04
 643.34
 648.21
 654.89
 662.60
 671.64
 680.97
 690.48
 699.43
 707.69
 715.62
 723.26
 730.03
 735.93
 741.13
 745.02
 747.92
 749.13
 748.51
 745.56
 741.41
 735.87
 728.78
 721.60
 714.44
 707.80
 705.02
 700.82
 695.93
 689.84
 683.36
 676.82
 672.04
 666.83
 661.45
 655.81
 650.63
 645.66
 636.80
 625.82
 592.04
 561.43
 534.09
 509.48
 487.33
 467.70
 451.23
 456.51
 447.46
 432.11
 419.30
 406.77
 395.39
 384.65
 375.39
 366.65
 359.28
 351.86
 346.27
 340.24
 335.82
 331.94
 328.14
 324.83
 322.25
 348.62
 372.46
 383.11
 374.50
 366.55
 359.40
 352.96
 347.26
 342.14
 337.62
 333.46
 329.71
 326.44
 323.40
 320.76
 318.48
 316.53
 315.08
 313.37
 311.74
 310.66
 309.20
 308.48
 307.13
 306.62
 305.85
 305.67
 305.40
 305.26
 305.04
 305.03
 304.93
 304.94
 305.14
 305.43
 306.09
 327.28
 351.25
 372.92
 392.53
 410.48
 427.33
 442.60
 456.74
 470.46
 483.72
 496.25
 508.82
 520.94
 532.85
 544.56
 556.30
 567.77
 579.10
 590.09
 600.88
 611.29
 621.16
 630.65
 639.48
 648.13
 655.92
 663.03
 669.72
 675.65
 680.99
 685.79
 690.01
 694.21
 697.69
 700.72
 703.75
 706.07
 708.37
 710.23
 711.81
 713.13
 714.21
 715.19
 716.07
 716.86
 717.48
 718.03
 718.33
 718.59
 718.74
 718.66
 718.70
 718.23
 717.70
 716.73
 715.56
 714.40
 713.06
 711.66
 709.89
 707.70
 705.23
 702.41
 699.27
 696.14
 692.53
 688.97
 685.18
 680.86
 676.67
 672.51
 667.96
 663.66
 659.29
 655.26
 651.54
 647.68
 644.42
 641.07
 637.97
 635.07
 632.26
 629.54
 627.38
 625.24
 623.12
 621.31
 619.78
 618.40
 617.16
 616.14
 615.23
 614.41
 613.57
 612.71
 611.64
 610.57
 609.32
 608.29
 607.16
 605.84
 604.76
 603.78
 602.50
 601.35
 599.92
 598.53
 596.87
 595.29
 593.96
 592.86
 591.78
 591.30
 590.97
 590.87
 591.08
 591.38
 591.84
 592.95
 594.16
 596.24
 598.22
 600.40
 602.36
 604.72
 608.45
 613.30
 619.57
 626.72
 634.34
 641.81
 648.63
 654.77
 661.19
 667.87
 674.28
 680.26
 685.13
 688.82
 691.04
 691.83
 692.15
 692.43
 693.19
 694.27
 693.74
 691.87
 688.48
 684.73
 681.66
 678.39
 675.66
 672.99
 670.49
 669.94
 667.85
 664.76
 661.09
 657.28
 653.25
 650.63
 649.26
 647.14
 645.22
 643.30
 641.57
 639.71
 637.94
 637.45
 639.20
 643.28
 647.45
 650.61
 652.95
 654.15
 654.14
 653.72
 652.85
 650.77
 646.99
 642.49
 637.94
 633.15
 598.83
 568.15
 569.83
 571.45
 550.91
 553.52
 556.46
 530.52
 507.37
 486.53
 467.78
 451.00
 435.80
 422.52
 412.37
 401.53
 391.68
 382.31
 374.38
 377.64
 372.38
 392.14
 410.42
 423.88
 423.39
 411.45
 400.71
 412.94
 409.74
 425.77
 440.49
 454.04
 466.14
 476.93
 486.93
 496.14
 504.43
 511.78
 518.90
 524.91
 530.12
 534.91
 539.32
 543.19
 546.57
 549.41
 552.47
 554.82
 556.94
 558.55
 559.99
 561.39
 562.55
 563.80
 565.12
 565.81
 566.43
 566.58
 560.52
 560.97
 548.78
 539.20
 516.48
 495.83
 477.35
 460.61
 445.55
 432.10
 420.09
 408.98
 398.78
 389.60
 381.34
 374.11
 367.70
 361.93
 356.63
 352.17
 347.95
 344.16
 340.84
 337.16
 334.54
 332.39
 330.35
 328.21
 326.79
 325.61
 324.65
 323.69
 323.02
 322.42
 322.07
 321.87
 322.38
 332.14
 354.03
 374.13
 392.41
 409.47
 425.02
 439.22
 452.50
 464.85
 476.66
 488.10
 499.19
 510.07
 521.16
 531.95
 543.05
 554.25
 565.82
 577.34
 588.81
 599.83
 610.64
 620.38
 629.34
 637.41
 644.77
 651.39
 657.15
 662.34
 667.00
 670.90
 674.31
 677.18
 679.86
 682.38
 684.34
 686.30
 687.97
 689.28
 690.45
 691.40
 692.06
 692.76
 692.78
 692.70
 692.33
 691.60
 691.04
 689.94
 688.74
 687.57
 686.11
 684.50
 682.75
 680.87
 678.99
 676.59
 673.93
 671.24
 668.11
 664.80
 661.22
 657.50
 653.95
 650.05
 646.25
 642.52
 639.07
 635.46
 632.12
 628.71
 625.74
 622.96
 620.17
 617.85
 615.36
 613.13
 611.12
 609.10
 607.29
 605.26
 603.14
 601.42
 599.58
 597.82
 596.04
 594.34
 592.90
 591.61
 590.85
 590.37
 589.43
 588.29
 587.26
 586.03
 585.63
 585.57
 586.21
 587.09
 587.28
 587.55
 588.10
 589.49
 592.14
 596.22
 600.80
 605.62
 610.26
 615.13
 621.12
 629.01
 638.01
 647.71
 657.24
 666.01
 673.31
 679.88
 686.19
 692.47
 698.13
 702.61
 705.95
 707.66
 707.69
 707.52
 707.07
 706.26
 704.64
 701.77
 697.60
 691.74
 685.86
 681.78
 678.20
 674.38
 670.54
 665.69
 660.52
 655.37
 650.03
 645.43
 640.88
 636.40
 631.56
 626.90
 622.11
 589.60
 560.34
 534.21
 510.38
 488.35
 469.31
 452.28
 436.55
 423.00
 410.70
 399.83
 389.94
 381.15
 373.34
 366.30
 360.17
 354.55
 349.50
 345.15
 341.13
 337.62
 334.36
 331.72
 329.25
 326.63
 324.66
 323.10
 321.69
 319.62
 318.56
 317.00
 316.70
 316.03
 315.43
 315.38
 314.95
 314.55
 314.40
 314.16
 314.04
 313.94
 313.74
 313.67
 313.40
 313.36
 313.23
 313.10
 312.69
 337.82
 358.64
 354.18
 349.96
 346.16
 342.95
 339.55
 336.80
 334.22
 331.20
 329.28
 326.85
 325.46
 323.42
 322.48
 321.53
 320.88
 320.29
 319.76
 319.18
 318.96
 318.67
 318.50
 318.45
 318.31
 318.28
 318.35
 318.51
 318.76
 318.89
 319.20
 319.38
 319.74
 320.07
 322.46
 335.01
 349.61
 369.65
 387.79
 404.61
 419.85
 433.76
 446.49
 458.04
 468.83
 479.05
 488.74
 497.97
 506.67
 514.91
 522.92
 530.62
 538.46
 546.32
 554.08
 561.88
 569.69
 577.52
 585.27
 593.04
 600.74
 608.56
 616.21
 623.99
 631.59
 638.93
 646.34
 653.30
 660.07
 666.16
 671.95
 677.45
 682.21
 686.49
 690.54
 694.28
 697.56
 700.50
 703.05
 705.35
 707.21
 708.79
 710.21
 711.19
 712.17
 712.75
 713.08
 713.37
 713.43
 713.39
 713.35
 713.32
 713.08
 712.88
 712.49
 712.14
 711.73
 711.15
 710.44
 709.39
 708.25
 706.93
 705.34
 703.50
 701.45
 699.21
 696.59
 693.93
 690.83
 687.75
 684.28
 680.65
 677.08
 673.28
 669.65
 665.98
 662.58
 659.33
 656.19
 653.07
 650.17
 647.45
 644.71
 641.53
 638.38
 635.44
 632.40
 629.46
 626.61
 623.95
 621.66
 619.29
 616.86
 614.58
 612.32
 609.99
 607.89
 605.70
 604.03
 602.33
 600.99
 599.99
 598.99
 598.40
 598.26
 598.63
 599.47
 600.82
 602.84
 605.05
 607.25
 610.42
 614.68
 620.01
 626.01
 632.41
 638.47
 644.52
 650.47
 656.72
 663.45
 670.11
 676.50
 681.25
 684.92
 688.03
 690.93
 693.73
 695.66
 696.79
 696.91
 695.42
 692.28
 687.55
 683.30
 680.27
 677.04
 673.84
 669.85
 665.57
 660.41
 656.27
 652.54
 648.89
 645.30
 641.87
 638.58
 635.02
 630.92
 626.73
 622.56
 619.10
 615.09
 609.18
 578.86
 551.28
 526.65
 509.38
 515.45
 521.00
 499.40
 479.76
 462.38
 446.05
 432.14
 419.53
 408.27
 398.25
 389.22
 381.10
 373.89
 367.40
 361.66
 356.39
 351.76
 347.78
 344.00
 340.70
 337.73
 335.06
 332.75
 330.68
 328.91
 327.32
 326.09
 324.88
 323.49
 322.64
 321.38
 320.74
 319.47
 319.02
 318.62
 318.36
 318.12
 317.81
 317.43
 316.98
 316.69
 316.52
 316.47
 316.32
 316.29
 316.06
 315.95
 315.86
 315.97
 315.87
 315.89
 316.10
 316.19
 316.27
 315.94
 316.05
 315.64
 316.18
 316.56
 317.01
 317.20
 317.58
 317.83
 318.14
 318.53
 318.98
 319.38
 319.74
 319.97
 320.27
 320.74
 320.97
 321.17
 321.45
 321.61
 321.75
 321.97
 322.38
 323.04
 325.13
 334.72
 355.75
 375.07
 392.67
 408.70
 423.33
 436.90
 449.41
 461.07
 471.76
 481.98
 491.69
 500.92
 509.73
 518.55
 527.30
 536.17
 545.45
 554.71
 564.04
 573.23
 582.11
 591.00
 599.50
 607.75
 615.77
 623.30
 630.67
 637.50
 643.95
 650.15
 655.84
 661.06
 665.75
 669.97
 673.88
 677.69
 681.32
 684.19
 686.67
 688.80
 691.02
 692.62
 694.06
 695.15
 695.74
 696.16
 696.45
 696.20
 695.98
 695.48
 694.74
 693.76
 692.59
 691.43
 690.18
 688.87
 687.78
 686.60
 685.24
 683.82
 682.44
 681.19
 679.97
 678.78
 678.00
 676.90
 675.81
 674.83
 673.54
 672.19
 670.47
 668.62
 666.26
 663.44
 660.59
 657.63
 654.37
 651.53
 648.38
 645.44
 642.50
 639.45
 636.70
 633.93
 631.24
 628.82
 626.43
 623.99
 621.79
 619.81
 617.73
 615.66
 613.59
 611.93
 610.14
 608.43
 606.68
 604.61
 602.85
 601.17
 599.45
 598.11
 597.00
 596.20
 595.98
 596.18
 596.76
 597.78
 599.21
 601.19
 603.27
 605.24
 607.42
 610.27
 613.95
 618.65
 624.59
 631.03
 637.43
 643.38
 649.04
 653.84
 658.56
 662.90
 667.31
 671.58
 675.02
 677.72
 679.95
 681.25
 681.63
 681.36
 681.33
 681.30
 680.17
 678.15
 675.53
 672.68
 670.11
 667.50
 664.65
 661.19
 656.47
 652.02
 649.62
 646.96
 643.46
 639.52
 635.16
 631.15
 626.83
 623.25
 619.72
 617.15
 614.04
 610.13
 579.32
 552.89
 527.90
 505.51
 485.26
 467.13
 451.12
 436.51
 423.16
 411.24
 400.62
 391.15
 382.64
 375.08
 368.57
 362.41
 357.07
 352.06
 346.96
 343.06
 338.95
 336.06
 333.55
 331.20
 329.08
 327.27
 325.54
 324.19
 322.87
 321.68
 320.61
 319.35
 318.42
 317.58
 316.92
 316.33
 315.89
 315.60
 315.54
 315.59
 315.53
 315.68
 315.81
 316.33
 316.70
 317.33
 328.39
 348.85
 369.47
 388.42
 405.08
 420.17
 431.45
 426.71
 416.24
 406.31
 397.48
 389.33
 382.00
 375.30
 369.47
 364.12
 359.51
 355.46
 352.01
 349.31
 347.28
 356.35
 373.72
 389.55
 404.69
 418.52
 431.17
 442.75
 453.48
 463.63
 473.47
 482.72
 491.95
 500.85
 509.57
 518.61
 528.05
 537.55
 547.09
 556.58
 566.22
 575.30
 584.07
 592.56
 600.51
 607.86
 615.17
 621.85
 628.07
 633.86
 639.28
 644.15
 648.53
 652.58
 656.32
 659.69
 662.92
 665.93
 668.54
 670.78
 672.80
 674.42
 676.08
 677.67
 679.01
 680.20
 681.28
 682.56
 683.60
 684.84
 685.76
 686.28
 686.55
 686.60
 686.54
 686.18
 685.47
 684.72
 683.55
 682.19
 680.67
 678.91
 677.22
 675.29
 673.36
 671.33
 669.39
 667.16
 664.94
 662.45
 659.90
 657.21
 654.29
 651.36
 648.62
 645.76
 642.49
 639.24
 635.81
 632.63
 629.47
 626.62
 623.76
 620.78
 618.21
 615.38
 612.45
 609.70
 606.93
 604.34
 602.10
 599.89
 598.00
 596.00
 594.20
 592.38
 590.64
 589.48
 588.43
 587.29
 586.06
 584.85
 583.77
 582.69
 581.62
 581.16
 580.84
 580.66
 580.59
 580.53
 581.08
 582.17
 583.86
 586.27
 589.04
 591.94
 595.44
 599.90
 605.61
 612.75
 620.67
 628.71
 636.14
 643.02
 649.92
 657.13
 664.22
 670.99
 676.69
 681.42
 684.48
 685.03
 683.73
 680.76
 677.48
 675.03
 672.33
 670.00
 667.10
 663.59
 660.13
 655.22
 650.49
 646.95
 643.45
 640.71
 638.73
 637.06
 635.86
 633.17
 630.65
 628.89
 626.90
 625.41
 623.47
 621.32
 619.69
 617.52
 615.97
 615.47
 614.42
 613.88
 612.69
 610.72
 609.45
 607.41
 605.67
 603.80
 601.22
 598.90
 596.51
 593.06
 590.65
 587.59
 585.63
 583.96
 581.87
 580.58
 579.22
 577.80
 576.62
 551.06
 551.95
 552.96
 529.46
 532.42
 534.87
 536.99
 539.39
 540.35
 542.11
 543.70
 544.83
 546.35
 547.51
 548.26
 549.44
 549.89
 550.90
 551.41
 551.47
 552.02
 552.02
 552.02
 552.02
 551.82
 551.63
 551.57
 528.91
 508.02
 489.52
 472.57
 457.11
 442.70
 429.53
 418.48
 408.33
 399.40
 391.36
 384.22
 377.80
 372.22
 367.30
 362.77
 358.39
 354.55
 351.00
 348.00
 345.50
 343.35
 341.51
 339.86
 338.48
 336.83
 335.94
 334.55
 333.90
 332.81
 332.63
 332.26
 332.14
 332.02
 331.92
 331.93
 332.24
 332.61
 335.55
 352.70
 370.83
 387.74
 403.17
 417.25
 430.43
 442.58
 453.93
 464.43
 474.59
 484.43
 493.79
 502.81
 512.13
 520.92
 529.92
 538.93
 547.84
 556.85
 565.57
 574.21
 582.59
 590.63
 598.57
 605.91
 612.92
 619.73
 626.26
 632.23
 637.81
 643.03
 647.92
 652.33
 656.30
 659.97
 663.37
 666.33
 669.10
 671.69
 674.02
 676.22
 678.00
 679.60
 681.24
 682.51
 683.86
 684.68
 685.51
 686.26
 686.53
 686.98
 687.08
 686.97
 686.88
 686.39
 685.85
 684.86
 683.78
 682.70
 681.23
 679.51
 677.76
 675.58
 673.22
 670.60
 667.64
 664.58
 661.22
 657.90
 654.31
 650.88
 647.29
 643.56
 639.90
 636.11
 632.50
 629.05
 625.55
 622.09
 618.88
 615.99
 612.99
 610.20
 607.48
 604.83
 602.35
 600.11
 597.80
 595.72
 593.55
 591.69
 590.02
 588.32
 586.79
 585.01
 583.31
 581.68
 580.21
 579.09
 578.18
 577.76
 577.79
 577.81
 578.13
 578.31
 578.18
 578.66
 579.20
 580.48
 582.03
 583.73
 585.55
 587.70
 590.43
 594.99
 601.19
 608.67
 616.50
 624.35
 632.22
 639.99
 647.60
 655.44
 662.99
 670.19
 676.57
 682.02
 686.51
 689.86
 692.18
 694.06
 695.25
 696.03
 696.12
 694.51
 691.46
 686.62
 680.85
 675.57
 669.51
 664.66
 660.09
 653.08
 647.88
 642.99
 638.59
 635.83
 631.55
 598.39
 595.05
 593.35
 591.91
 589.42
 587.08
 585.67
 583.70
 582.43
 581.49
 579.54
 578.59
 573.83
 564.65
 564.58
 544.92
 521.93
 500.54
 481.88
 464.40
 449.66
 435.49
 436.74
 424.67
 414.00
 405.80
 396.32
 404.19
 395.67
 387.90
 383.61
 377.05
 371.55
 366.49
 361.74
 378.47
 372.82
 372.64
 390.48
 383.63
 400.46
 414.92
 417.13
 430.31
 420.08
 432.57
 444.32
 432.59
 444.43
 454.58
 452.73
 462.25
 448.83
 457.64
 466.38
 454.44
 464.10
 472.39
 471.05
 478.24
 463.62
 450.26
 438.13
 427.12
 417.21
 408.09
 399.78
 392.40
 385.96
 380.06
 373.86
 368.97
 364.07
 359.97
 355.87
 352.88
 349.50
 347.25
 345.02
 343.12
 341.61
 340.15
 338.93
 337.94
 336.84
 336.06
 335.35
 334.82
 334.44
 333.99
 332.99
 332.69
 332.52
 332.57
 332.72
 341.74
 361.27
 378.94
 395.15
 410.33
 424.10
 436.99
 449.09
 460.38
 471.44
 482.10
 492.29
 502.16
 512.14
 522.13
 532.02
 541.82
 551.83
 561.75
 571.38
 580.94
 590.04
 598.94
 607.35
 615.31
 622.78
 629.90
 636.41
 642.47
 647.92
 652.73
 657.26
 661.53
 665.18
 668.76
 671.68
 674.42
 676.87
 678.99
 680.89
 682.40
 683.76
 685.18
 686.17
 687.15
 687.83
 688.45
 688.71
 688.73
 688.76
 688.49
 687.94
 687.24
 686.32
 685.29
 684.36
 683.02
 681.62
 680.16
 678.44
 676.60
 674.54
 672.58
 670.83
 668.84
 666.86
 664.67
 662.61
 660.35
 657.91
 655.32
 652.49
 649.44
 646.39
 643.16
 640.14
 636.93
 633.73
 630.86
 627.97
 625.08
 622.37
 619.83
 617.35
 615.11
 612.90
 610.91
 609.32
 607.59
 605.83
 604.25
 602.52
 600.87
 599.08
 597.27
 595.35
 593.21
 591.59
 589.83
 588.35
 586.91
 585.62
 584.16
 582.74
 581.37
 580.73
 580.26
 579.93
 579.84
 579.96
 580.56
 581.40
 582.86
 585.48
 589.03
 593.53
 598.77
 604.10
 609.09
 613.58
 619.12
 625.61
 633.05
 640.14
 647.43
 653.99
 659.79
 664.91
 670.02
 674.92
 679.12
 682.91
 686.12
 688.11
 689.10
 688.99
 687.99
 687.09
 685.78
 684.50
 682.75
 680.68
 677.71
 674.04
 670.93
 667.94
 663.95
 660.55
 657.70
 653.23
 649.20
 645.08
 640.98
 635.68
 630.51
 626.16
 622.04
 618.24
 615.12
 611.20
 607.58
 604.42
 601.08
 598.47
 594.43
 591.88
 589.30
 561.37
 561.83
 536.95
 514.65
 519.49
 498.64
 505.17
 510.36
 490.62
 497.86
 479.67
 487.81
 483.43
 465.88
 475.29
 458.46
 444.22
 446.30
 433.17
 421.55
 411.10
 401.49
 393.34
 385.50
 378.65
 374.19
 368.47
 370.72
 365.65
 361.28
 380.86
 384.17
 401.15
 416.24
 407.21
 421.79
 433.71
 444.74
 455.67
 443.20
 454.08
 455.37
 448.84
 458.25
 444.73
 441.85
 430.17
 418.65
 409.39
 400.15
 392.43
 385.39
 379.05
 373.45
 368.40
 363.76
 359.78
 355.91
 352.42
 349.37
 346.44
 343.99
 341.29
 339.56
 337.41
 336.17
 334.95
 333.96
 333.06
 332.35
 331.62
 331.06
 330.55
 330.20
 329.88
 329.59
 329.53
 329.48
 328.83
 329.15
 331.23
 351.91
 370.62
 387.66
 403.29
 417.56
 430.41
 442.46
 453.82
 464.74
 474.96
 484.87
 494.18
 503.36
 512.63
 521.56
 530.71
 540.14
 549.52
 559.07
 568.56
 578.01
 587.21
 595.99
 604.49
 612.74
 620.36
 627.63
 634.47
 640.72
 646.85
 652.16
 657.25
 661.72
 666.05
 669.74
 673.27
 676.74
 679.57
 682.31
 684.88
 687.09
 689.08
 690.87
 692.49
 694.04
 695.43
 696.59
 697.73
 698.66
 699.39
 699.85
 700.27
 700.84
 701.16
 701.34
 701.11
 700.70
 700.23
 699.70
 699.03
 698.53
 697.78
 697.00
 696.00
 694.80
 693.32
 691.39
 689.35
 686.71
 683.74
 680.77
 677.19
 673.67
 670.11
 666.29
 662.67
 658.90
 655.21
 651.69
 648.22
 645.10
 641.99
 638.59
 635.73
 632.56
 629.60
 626.84
 624.26
 621.73
 619.06
 616.55
 613.90
 611.51
 609.76
 608.38
 607.24
 606.22
 605.30
 605.07
 605.16
 605.54
 606.69
 608.02
 609.62
 611.56
 614.00
 617.20
 621.48
 626.23
 631.91
 638.02
 643.62
 648.95
 653.96
 658.96
 664.07
 668.86
 673.87
 678.49
 682.34
 685.20
 686.78
 687.81
 688.33
 688.39
 688.55
 688.70
 688.23
 686.61
 683.64
 681.08
 678.17
 675.55
 673.00
 670.00
 666.60
 662.04
 656.74
 651.46
 645.52
 640.56
 636.41
 632.67
 629.50
 605.65
 604.09
 602.68
 600.31
 598.88
 597.19
 595.47
 594.02
 591.12
 589.51
 570.96
 561.06
 561.86
 536.47
 539.02
 517.22
 496.40
 503.56
 483.60
 491.74
 474.67
 464.80
 454.92
 440.43
 434.89
 422.50
 411.75
 410.47
 400.63
 395.26
 387.34
 379.40
 373.16
 367.05
 361.84
 357.16
 352.74
 351.17
 347.55
 344.40
 341.76
 339.18
 337.06
 335.06
 333.35
 332.52
 330.96
 331.37
 329.93
 328.94
 327.74
 326.77
 325.99
 324.29
 323.56
 322.71
 322.04
 321.63
 321.27
 321.04
 320.74
 320.26
 320.04
 319.73
 319.66
 319.49
 319.35
 319.41
 319.17
 319.05
 318.95
 318.75
 318.78
 318.60
 318.14
 318.13
 317.51
 317.66
 317.30
 317.67
 317.80
 318.12
 318.51
 318.86
 319.27
 319.64
 319.98
 320.38
 320.84
 320.86
 321.47
 321.43
 322.18
 332.66
 348.50
 368.15
 386.43
 403.09
 418.28
 432.45
 445.41
 457.67
 468.90
 479.71
 489.94
 499.65
 509.28
 518.45
 527.91
 537.22
 546.40
 555.56
 564.70
 573.63
 582.37
 590.93
 599.14
 607.02
 614.72
 621.85
 628.46
 634.72
 640.35
 645.71
 650.54
 654.69
 658.52
 661.97
 665.17
 668.15
 670.64
 673.07
 675.17
 677.15
 678.83
 680.15
 681.44
 682.59
 683.43
 684.19
 684.87
 685.18
 685.27
 684.94
 684.64
 683.88
 682.89
 681.60
 679.94
 678.25
 676.32
 674.09
 671.88
 669.29
 666.56
 663.61
 660.25
 656.72
 653.15
 649.64
 645.87
 642.08
 638.58
 635.02
 631.72
 628.64
 625.58
 622.92
 620.43
 617.59
 614.93
 612.24
 609.81
 607.63
 605.37
 603.33
 601.40
 599.66
 559.99
 517.89
 484.60
 451.04
 423.64
 396.18
 370.16
 346.54
 325.29
 306.16
 288.94
 273.45
 259.50
 246.95
 235.76
 225.68
 216.41
 229.57
 290.72
 345.54
 394.89
 439.30
 479.27
 515.14
 547.43
 576.59
 602.83
 626.34
 647.41
 666.57
 683.71
 699.14
 713.03
 725.72
 736.95
 747.06
 756.45
 764.61
 772.15
 778.73
 784.66
 789.99
 794.79
 799.21
 802.99
 806.69
 809.72
 812.45
 815.21
 817.49
 819.54
 821.38
 823.14
 823.43
 821.69
 783.02
 784.62
 785.25
 785.53
 785.08
 783.37
 781.73
 778.96
 775.56
 772.61
 769.05
 765.14
 761.13
 756.91
 732.52
 730.07
 702.96
 652.57
 639.31
 597.38
 558.54
 547.19
 559.97
 536.47
 549.82
 556.94
 537.75
 550.17
 550.56
 561.10
 570.89
 578.80
 586.32
 592.89
 598.50
 603.65
 607.78
 611.21
 614.39
 616.35
 618.31
 619.68
 620.31
 621.28
 621.55
 621.60
 621.64
 617.07
 616.97
 616.57
 615.81
 615.23
 602.61
 600.25
 569.62
 540.76
 514.88
 491.60
 470.74
 451.46
 435.12
 420.60
 407.64
 395.98
 385.68
 376.61
 368.45
 361.51
 355.16
 349.54
 344.49
 340.24
 336.61
 333.45
 330.61
 328.15
 326.13
 324.72
 335.85
 333.46
 356.12
 376.50
 395.25
 412.63
 428.07
 441.86
 454.67
 466.11
 476.90
 486.91
 496.22
 505.19
 513.77
 522.20
 530.78
 539.50
 548.35
 557.71
 566.94
 576.55
 585.89
 595.40
 604.56
 613.31
 621.78
 630.00
 637.70
 644.83
 651.55
 657.59
 663.63
 669.27
 674.54
 679.59
 684.23
 688.61
 692.55
 696.49
 700.14
 703.13
 705.91
 708.42
 710.98
 712.98
 714.58
 716.03
 717.22
 717.80
 718.02
 717.82
 716.94
 715.54
 713.59
 711.03
 708.23
 704.60
 700.74
 696.57
 692.31
 688.18
 683.86
 679.48
 675.33
 671.20
 667.28
 663.55
 659.59
 655.83
 652.25
 648.63
 645.26
 641.74
 638.66
 636.10
 633.29
 630.76
 628.58
 626.62
 624.86
 623.08
 621.67
 620.40
 619.66
 619.60
 620.04
 620.93
 622.24
 623.21
 624.49
 626.64
 630.38
 635.84
 642.06
 648.85
 656.47
 664.02
 671.62
 678.96
 686.06
 693.25
 699.93
 705.94
 711.34
 715.21
 717.99
 719.39
 719.45
 718.70
 717.13
 715.22
 712.50
 708.45
 703.10
 697.39
 691.75
 686.18
 680.86
 676.47
 671.73
 666.15
 660.74
 654.77
 648.89
 643.80
 624.02
 620.42
 617.08
 613.77
 611.39
 608.25
 605.33
 602.99
 588.39
 587.66
 566.79
 540.31
 543.98
 520.38
 525.54
 530.49
 507.84
 514.16
 493.24
 473.72
 478.84
 461.26
 445.63
 442.27
 428.74
 443.37
 438.13
 451.32
 463.79
 474.41
 484.57
 493.31
 500.18
 507.06
 503.46
 510.21
 516.69
 522.12
 527.61
 531.85
 536.16
 540.95
 544.35
 548.32
 550.88
 553.00
 555.30
 556.57
 558.11
 559.20
 559.38
 560.04
 535.44
 538.19
 541.07
 542.67
 545.10
 546.89
 548.40
 549.16
 525.54
 526.89
 505.30
 486.17
 468.85
 453.27
 439.24
 426.72
 415.35
 405.01
 395.61
 387.35
 379.11
 372.40
 366.26
 361.14
 356.32
 351.89
 348.20
 344.78
 341.70
 338.93
 336.64
 334.68
 333.11
 331.40
 329.86
 328.27
 326.84
 325.56
 324.40
 322.96
 322.27
 321.74
 321.07
 319.96
 319.66
 319.30
 319.17
 318.95
 318.86
 318.67
 318.60
 318.64
 318.68
 318.91
 321.92
 342.63
 364.06
 383.16
 400.84
 417.46
 432.91
 447.42
 461.48
 474.83
 488.15
 501.13
 514.12
 527.01
 539.71
 552.34
 564.50
 576.35
 587.82
 598.54
 608.68
 617.91
 626.32
 633.89
 640.70
 647.13
 652.62
 657.66
 662.29
 666.66
 670.50
 673.95
 677.05
 679.95
 682.75
 685.08
 687.17
 689.15
 691.04
 692.63
 694.17
 695.45
 696.61
 697.65
 698.38
 699.04
 699.54
 700.09
 700.28
 700.25
 700.52
 700.57
 700.41
 700.07
 699.77
 699.49
 698.84
 698.36
 697.72
 697.15
 696.43
 695.39
 694.25
 692.73
 690.85
 688.77
 686.49
 684.04
 681.24
 678.41
 675.57
 672.52
 669.66
 666.60
 663.54
 660.58
 657.33
 654.39
 651.15
 647.94
 644.74
 641.67
 638.80
 636.12
 633.51
 630.96
 628.36
 625.83
 623.44
 621.20
 618.68
 616.41
 614.37
 612.63
 611.47
 610.82
 610.74
 611.07
 611.26
 611.63
 611.77
 611.69
 612.12
 613.11
 615.10
 617.29
 620.16
 623.75
 627.57
 632.01
 635.81
 640.33
 645.60
 651.44
 657.69
 664.02
 670.12
 675.71
 680.74
 685.37
 690.13
 694.82
 698.73
 702.16
 704.74
 706.37
 707.43
 707.89
 708.00
 708.20
 708.78
 709.60
 709.74
 708.67
 704.70
 700.33
 696.00
 691.80
 688.52
 684.57
 681.41
 678.27
 674.74
 671.97
 668.27
 666.24
 663.82
 660.24
 656.91
 652.42
 648.08
 643.47
 638.72
 633.75
 627.98
 624.28
 621.55
 622.20
 622.08
 619.87
 618.48
 616.93
 615.04
 612.74
 610.16
 608.55
 605.79
 603.61
 583.45
 556.01
 557.01
 531.21
 508.18
 487.27
 468.64
 452.18
 437.26
 450.53
 436.28
 423.55
 436.80
 423.82
 438.33
 425.30
 413.57
 402.31
 392.78
 388.00
 380.10
 398.49
 395.74
 387.27
 405.04
 395.54
 412.38
 402.15
 394.03
 385.03
 377.53
 371.37
 365.14
 374.92
 369.23
 388.51
 406.06
 420.55
 435.40
 447.86
 459.67
 470.30
 455.27
 466.25
 466.52
 476.27
 484.64
 492.78
 500.40
 506.76
 513.48
 518.94
 524.44
 528.80
 532.32
 535.59
 538.23
 541.50
 543.85
 545.97
 546.97
 547.87
 549.09
 525.38
 528.64
 507.68
 492.21
 476.29
 460.46
 445.51
 432.36
 421.03
 412.12
 402.71
 394.34
 386.91
 380.12
 374.00
 368.70
 363.73
 358.86
 354.57
 350.12
 347.00
 344.10
 341.69
 339.52
 337.67
 335.90
 334.01
 332.41
 331.17
 330.05
 329.35
 328.31
 327.58
 326.92
 326.33
 325.70
 325.43
 325.19
 325.07
 325.06
 324.85
 324.87
 324.88
 324.99
 325.19
 325.38
 325.64
 326.47
 331.03
 352.22
 372.10
 389.99
 406.69
 422.02
 436.12
 449.21
 461.69
 473.42
 484.78
 496.20
 507.18
 518.26
 529.44
 540.59
 551.83
 562.95
 573.75
 584.28
 594.75
 604.38
 613.34
 621.80
 629.92
 636.83
 643.05
 648.54
 653.49
 657.94
 661.95
 665.75
 668.98
 671.88
 674.49
 676.94
 679.05
 680.74
 682.37
 683.83
 684.95
 686.15
 686.94
 687.64
 688.18
 688.76
 688.99
 688.99
 689.09
 689.18
 688.96
 688.97
 688.77
 688.49
 688.24
 687.82
 687.44
 686.59
 685.53
 684.18
 682.46
 680.42
 678.07
 675.67
 673.10
 670.49
 667.84
 665.26
 662.63
 659.97
 657.37
 654.83
 652.05
 649.25
 646.32
 643.59
 640.83
 638.15
 635.73
 633.06
 630.85
 628.37
 625.83
 623.65
 621.48
 619.53
 617.68
 615.81
 613.43
 611.09
 609.28
 608.05
 607.65
 607.58
 607.82
 607.64
 607.08
 606.77
 606.39
 606.85
 608.07
 610.36
 614.02
 617.82
 621.24
 624.22
 627.69
 632.03
 637.82
 644.74
 652.27
 660.34
 667.91
 674.71
 680.94
 686.75
 692.47
 697.83
 703.24
 707.92
 711.73
 714.65
 715.69
 715.72
 715.75
 715.77
 715.80
 716.12
 716.40
 715.36
 712.53
 708.38
 704.04
 700.53
 696.48
 692.53
 686.48
 680.83
 675.65
 669.68
 664.31
 659.98
 655.98
 652.89
 649.60
 647.54
 644.88
 642.50
 639.75
 636.37
 632.63
 598.17
 597.45
 590.31
 590.38
 591.04
 591.24
 592.11
 591.70
 592.03
 592.13
 592.01
 591.41
 589.87
 589.48
 560.34
 562.50
 538.15
 541.74
 545.46
 520.92
 526.73
 504.15
 511.14
 490.22
 471.30
 471.47
 454.32
 465.19
 448.87
 461.39
 472.35
 455.31
 467.38
 451.14
 463.13
 473.72
 482.94
 492.25
 497.62
 505.66
 512.30
 518.87
 524.48
 529.13
 534.02
 537.92
 541.72
 544.65
 547.59
 550.33
 552.60
 554.84
 544.45
 545.31
 521.78
 500.60
 504.34
 485.20
 483.38
 466.15
 459.03
 444.23
 431.01
 419.40
 408.66
 398.70
 390.13
 382.62
 375.65
 369.39
 363.75
 358.57
 353.32
 349.09
 345.48
 342.23
 338.81
 336.33
 333.99
 331.99
 330.19
 328.77
 327.30
 325.97
 324.97
 323.97
 323.18
 322.36
 320.92
 320.23
 319.71
 319.34
 319.10
 319.09
 318.98
 318.89
 318.90
 319.01
 319.31
 319.78
 320.10
 320.39
 320.75
 321.47
 335.13
 356.51
 376.36
 394.43
 410.58
 425.43
 439.18
 452.06
 463.96
 475.56
 486.61
 497.85
 508.46
 519.11
 529.60
 540.34
 550.81
 561.23
 571.70
 581.73
 591.66
 601.19
 610.08
 618.27
 625.74
 632.77
 639.19
 645.17
 651.05
 655.85
 660.06
 663.66
 666.89
 669.70
 671.93
 674.04
 675.64
 677.17
 678.55
 679.90
 681.01
 682.11
 683.10
 683.69
 684.42
 684.78
 685.00
 685.10
 685.29
 685.16
 684.74
 684.27
 683.44
 682.60
 681.44
 680.19
 678.68
 676.91
 675.12
 672.81
 670.22
 667.70
 664.83
 662.05
 658.94
 655.85
 652.76
 649.39
 646.25
 643.02
 639.92
 636.63
 633.37
 630.23
 626.81
 623.53
 620.27
 617.45
 614.80
 612.22
 610.40
 608.56
 606.70
 604.73
 602.66
 600.89
 599.00
 596.90
 595.21
 593.69
 592.62
 591.56
 590.90
 590.61
 590.85
 591.17
 591.75
 592.88
 594.39
 596.85
 599.76
 603.39
 606.95
 610.15
 614.64
 619.67
 625.81
 633.33
 641.99
 650.79
 659.32
 667.78
 676.11
 684.29
 691.97
 699.17
 705.85
 711.77
 716.99
 721.09
 724.78
 728.00
 730.20
 731.58
 732.02
 731.72
 729.55
 725.39
 719.06
 712.05
 704.84
 696.26
 688.73
 681.06
 675.95
 669.36
 664.22
 658.40
 651.56
 646.00
 629.40
 625.36
 596.73
 566.05
 538.85
 514.46
 521.02
 498.72
 479.44
 460.70
 444.63
 457.87
 442.28
 429.45
 416.81
 405.43
 407.28
 396.96
 414.56
 403.50
 420.45
 410.41
 409.27
 425.34
 430.91
 445.52
 456.86
 468.78
 478.90
 487.41
 495.97
 476.77
 485.89
 467.41
 460.76
 445.69
 431.62
 445.16
 430.64
 444.28
 434.35
 447.71
 459.54
 470.19
 480.57
 488.61
 496.95
 503.96
 510.76
 516.68
 521.92
 526.92
 530.43
 534.59
 537.53
 540.48
 543.23
 545.51
 547.76
 547.88
 549.29
 526.86
 515.78
 504.00
 500.80
 506.32
 487.69
 475.22
 459.50
 445.45
 433.70
 422.23
 412.11
 402.70
 394.23
 386.61
 379.74
 373.57
 367.91
 362.82
 358.14
 354.23
 350.50
 346.95
 343.96
 341.26
 338.84
 336.55
 334.50
 332.35
 330.51
 329.16
 328.15
 327.33
 326.60
 326.04
 325.73
 324.66
 325.39
 325.36
 332.82
 339.34
 359.60
 378.54
 395.59
 411.73
 425.86
 438.97
 450.97
 461.98
 472.18
 481.86
 491.48
 500.43
 509.38
 518.65
 527.88
 537.29
 546.86
 556.58
 566.22
 576.00
 585.10
 593.89
 602.50
 610.75
 618.37
 625.94
 632.84
 639.36
 645.62
 651.36
 656.82
 661.54
 666.19
 670.27
 674.44
 678.10
 681.29
 684.16
 686.84
 689.06
 690.95
 692.76
 694.18
 695.46
 696.32
 696.79
 697.21
 696.69
 695.82
 694.54
 692.68
 690.51
 687.86
 684.68
 681.11
 677.50
 673.45
 669.20
 665.18
 661.06
 656.96
 652.76
 648.79
 645.01
 641.41
 638.07
 634.56
 631.20
 627.88
 624.69
 621.43
 618.48
 615.53
 612.48
 609.73
 606.86
 604.47
 602.53
 600.57
 598.72
 597.34
 596.41
 595.57
 595.41
 595.57
 595.91
 596.22
 596.50
 596.75
 596.88
 596.79
 596.21
 595.49
 594.34
 592.91
 591.51
 590.06
 588.96
 587.86
 586.58
 585.52
 584.17
 582.65
 581.28
 580.16
 579.24
 578.42
 577.87
 577.49
 577.44
 577.19
 576.78
 576.60
 576.64
 577.37
 578.14
 579.32
 580.79
 582.31
 583.68
 584.81
 586.43
 588.69
 592.22
 597.10
 602.59
 608.53
 614.48
 620.83
 627.35
 634.51
 642.16
 650.04
 658.04
 665.54
 672.48
 678.13
 682.72
 686.55
 689.69
 692.42
 694.58
 696.42
 697.78
 698.20
 696.58
 692.52
 686.67
 681.00
 675.70
 668.73
 663.86
 658.17
 652.76
 647.48
 642.23
 638.21
 634.49
 630.34
 626.51
 623.16
 620.64
 616.68
 613.71
 610.34
 607.70
 605.93
 603.74
 602.37
 600.13
 599.02
 597.51
 596.16
 595.05
 593.54
 592.39
 588.25
 586.82
 558.54
 533.19
 510.37
 489.73
 477.36
 460.02
 444.82
 430.74
 418.26
 407.54
 397.38
 414.45
 403.80
 420.12
 421.91
 436.02
 431.22
 419.19
 433.28
 420.35
 433.81
 423.43
 433.79
 446.51
 457.26
 468.23
 476.71
 485.54
 493.38
 500.15
 506.63
 511.77
 516.49
 519.74
 523.77
 527.09
 529.78
 512.00
 492.60
 476.14
 459.33
 444.70
 431.93
 420.43
 410.09
 400.68
 392.11
 384.40
 377.66
 371.60
 366.14
 361.02
 356.52
 352.57
 349.11
 345.70
 342.53
 339.68
 337.21
 335.09
 333.28
 331.85
 330.07
 328.96
 328.16
 327.45
 326.80
 326.22
 325.80
 324.82
 324.14
 326.12
 345.81
 365.73
 384.56
 401.90
 417.81
 432.83
 446.25
 458.82
 470.34
 481.01
 491.11
 500.70
 510.13
 519.11
 528.10
 536.99
 545.39
 554.15
 562.74
 571.66
 580.30
 589.37
 598.13
 606.72
 615.05
 623.04
 631.04
 638.43
 645.59
 652.13
 658.32
 664.19
 669.47
 674.52
 678.87
 683.08
 686.87
 690.29
 693.56
 696.40
 698.86
 700.88
 702.79
 704.01
 705.01
 705.71
 706.04
 706.33
 706.30
 706.07
 705.76
 705.29
 704.56
 703.70
 702.83
 701.75
 700.57
 699.42
 698.27
 696.85
 694.96
 693.17
 691.15
 689.03
 686.93
 684.74
 682.56
 680.51
 678.56
 676.40
 674.66
 673.09
 671.29
 669.66
 668.29
 667.46
 667.12
 667.10
 667.69
 668.72
 669.85
 671.17
 672.55
 673.79
 675.22
 676.49
 677.54
 678.59
 679.23
 679.61
 679.55
 678.89
 677.80
 676.12
 674.21
 671.49
 668.64
 665.38
 661.74
 657.96
 654.17
 650.35
 646.62
 642.95
 639.76
 636.48
 633.73
 631.16
 628.75
 626.37
 624.03
 621.83
 619.65
 617.78
 615.90
 614.51
 613.06
 611.76
 610.58
 609.42
 608.38
 607.04
 605.74
 604.36
 603.03
 602.02
 601.22
 600.70
 600.53
 600.58
 600.82
 600.94
 601.14
 600.93
 600.04
 598.53
 597.38
 596.24
 595.52
 595.67
 595.80
 596.82
 598.34
 600.90
 604.31
 609.18
 615.66
 622.90
 631.01
 639.41
 648.37
 657.63
 667.07
 676.36
 684.62
 692.16
 698.85
 704.56
 709.60
 714.14
 718.23
 721.61
 724.15
 725.13
 725.52
 724.77
 722.79
 719.71
 714.34
 708.41
 701.47
 694.42
 687.18
 680.36
 672.72
 666.15
 661.44
 655.39
 651.25
 646.63
 641.66
 637.20
 633.18
 629.66
 625.89
 622.91
 619.61
 616.75
 614.18
 611.46
 609.51
 606.76
 604.59
 586.33
 572.19
 571.98
 543.88
 547.79
 523.31
 528.98
 533.98
 538.68
 543.62
 547.05
 550.75
 526.57
 531.62
 514.15
 518.54
 524.59
 528.93
 533.83
 537.05
 540.35
 528.91
 532.72
 536.05
 513.24
 518.72
 498.35
 504.81
 486.73
 469.86
 475.17
 458.05
 468.15
 465.33
 473.50
 457.65
 443.19
 431.77
 419.19
 408.57
 399.11
 390.50
 382.75
 375.58
 369.02
 363.22
 358.00
 353.40
 349.36
 345.82
 342.14
 339.12
 336.41
 333.97
 331.87
 329.79
 328.01
 325.91
 324.42
 323.07
 321.97
 320.87
 320.18
 319.37
 318.23
 317.91
 317.72
 317.44
 317.50
 317.55
 317.69
 317.42
 329.88
 336.99
 358.99
 378.80
 396.82
 413.53
 428.68
 442.81
 455.73
 467.96
 479.66
 490.70
 501.73
 512.25
 522.93
 533.34
 543.80
 554.22
 564.40
 574.76
 584.58
 594.43
 603.68
 612.71
 621.14
 629.23
 636.91
 644.22
 651.19
 657.47
 663.23
 668.60
 673.64
 678.28
 682.25
 685.83
 689.14
 691.83
 694.35
 696.51
 698.66
 700.39
 701.76
 702.78
 703.60
 704.44
 704.80
 705.22
 705.70
 706.23
 706.30
 706.07
 705.87
 705.38
 704.84
 704.26
 703.23
 702.11
 701.00
 699.80
 698.52
 697.27
 695.94
 694.85
 693.96
 692.96
 692.37
 691.63
 691.07
 690.46
 689.92
 689.22
 688.60
 687.74
 686.77
 685.49
 684.04
 682.64
 680.87
 678.69
 676.32
 673.79
 671.41
 668.67
 666.10
 663.39
 660.75
 658.18
 655.46
 652.81
 650.33
 647.80
 645.32
 642.49
 640.24
 637.61
 635.15
 632.64
 630.37
 628.04
 625.73
 623.56
 621.50
 619.45
 617.31
 615.28
 613.65
 612.08
 610.48
 608.93
 607.84
 606.45
 605.31
 604.28
 603.35
 602.41
 601.37
 600.63
 599.37
 598.13
 597.02
 595.42
 594.28
 593.15
 592.33
 591.30
 590.37
 589.73
 588.96
 588.46
 587.92
 587.63
 587.06
 586.86
 586.47
 585.62
 585.46
 585.22
 585.29
 585.36
 585.73
 586.56
 587.80
 589.42
 591.48
 594.63
 598.87
 604.08
 610.37
 617.04
 624.23
 631.71
 639.94
 648.64
 657.58
 666.72
 675.35
 683.51
 691.06
 698.16
 704.64
 710.58
 715.82
 720.44
 724.49
 726.54
 727.79
 727.31
 725.58
 722.52
 717.87
 713.08
 706.37
 700.14
 693.32
 686.59
 681.73
 676.36
 672.72
 668.55
 665.60
 661.94
 657.54
 652.29
 646.36
 641.82
 637.64
 633.98
 629.28
 625.75
 622.28
 622.25
 622.72
 622.75
 619.08
 587.97
 587.27
 586.94
 586.45
 586.70
 586.03
 586.13
 585.52
 584.97
 584.47
 583.52
 584.07
 584.26
 585.24
 585.31
 585.58
 585.42
 584.68
 584.81
 583.33
 583.10
 581.99
 581.19
 580.37
 575.63
 575.17
 547.45
 550.01
 551.91
 553.92
 555.92
 531.33
 535.10
 512.69
 517.82
 497.24
 503.91
 510.02
 490.52
 498.07
 478.66
 487.30
 477.27
 486.14
 494.03
 500.02
 506.82
 496.24
 502.91
 484.82
 467.94
 477.25
 461.22
 471.50
 479.65
 488.18
 471.67
 457.10
 467.39
 452.25
 456.43
 442.18
 428.46
 416.52
 406.27
 396.84
 388.26
 381.03
 373.93
 367.93
 362.44
 357.60
 353.14
 349.12
 345.41
 342.17
 338.95
 336.46
 334.41
 332.47
 330.72
 329.15
 327.84
 326.05
 325.15
 324.53
 323.88
 323.29
 322.86
 322.58
 322.02
 321.72
 321.74
 334.37
 356.03
 375.63
 393.47
 409.82
 424.74
 438.46
 451.22
 462.90
 473.61
 483.25
 492.42
 501.08
 509.27
 517.24
 524.82
 532.44
 539.89
 547.50
 555.05
 562.45
 569.80
 576.92
 584.23
 591.61
 599.05
 606.54
 613.59
 620.53
 627.48
 634.13
 640.62
 646.75
 652.78
 658.10
 663.09
 667.68
 672.11
 676.10
 679.79
 683.51
 686.56
 689.51
 692.15
 694.64
 696.78
 698.70
 700.53
 702.08
 703.77
 705.09
 706.58
 707.62
 708.46
 709.21
 709.59
 709.93
 709.84
 709.76
 709.08
 708.27
 707.25
 705.82
 704.14
 702.13
 699.81
 697.13
 694.12
 690.91
 687.32
 683.58
 679.63
 675.76
 672.09
 668.58
 665.32
 661.99
 659.29
 656.66
 654.29
 652.46
 650.62
 649.26
 648.03
 647.33
 646.69
 645.73
 644.25
 641.93
 639.63
 637.57
 636.31
 635.48
 635.53
 635.88
 636.19
 636.57
 636.72
 638.14
 641.43
 646.69
 653.62
 661.36
 669.12
 675.91
 682.02
 688.22
 695.19
 702.47
 710.03
 717.32
 723.29
 728.06
 731.36
 734.32
 736.79
 737.91
 737.32
 734.59
 729.83
 722.75
 715.67
 708.90
 702.91
 699.12
 695.61
 693.35
 690.31
 687.18
 683.66
 678.80
 673.52
 667.67
 662.60
 658.14
 654.93
 651.93
 648.14
 645.73
 643.05
 638.45
 633.40
 628.66
 623.90
 619.31
 615.48
 584.03
 556.03
 530.22
 507.40
 486.86
 468.27
 451.95
 437.25
 432.23
 418.80
 421.52
 428.17
 441.45
 454.51
 465.86
 477.17
 487.26
 497.73
 508.46
 518.41
 528.37
 536.73
 544.66
 551.39
 557.35
 562.62
 566.26
 569.73
 572.26
 575.63
 577.67
 580.20
 582.58
 583.92
 586.23
 586.71
 587.74
 588.26
 588.44
 588.19
 586.87
 586.59
 574.03
 575.63
 577.16
 578.75
 581.07
 582.26
 584.14
 584.72
 585.95
 586.96
 586.56
 587.20
 557.58
 531.23
 507.20
 485.38
 466.14
 448.53
 462.38
 445.34
 459.71
 445.23
 458.81
 470.23
 452.21
 462.69
 446.42
 459.18
 443.76
 430.08
 418.47
 407.43
 398.28
 389.26
 381.53
 374.38
 367.94
 362.45
 356.80
 352.32
 348.09
 344.68
 341.91
 364.82
 384.84
 401.85
 417.87
 431.78
 445.70
 457.13
 468.72
 479.05
 488.84
 498.56
 506.40
 513.46
 519.22
 524.49
 528.65
 531.98
 534.38
 512.84
 493.46
 476.01
 460.41
 446.27
 433.84
 421.96
 412.16
 403.55
 395.79
 388.91
 382.82
 377.64
 376.48
 392.53
 407.48
 421.23
 433.71
 445.03
 455.53
 465.38
 474.24
 482.62
 490.45
 498.11
 505.40
 512.66
 519.99
 527.09
 534.08
 541.08
 548.07
 555.06
 561.96
 568.56
 575.10
 581.59
 587.73
 593.66
 599.49
 605.24
 610.72
 616.25
 621.72
 627.05
 632.25
 637.22
 641.90
 646.61
 650.85
 655.16
 658.95
 662.35
 665.62
 668.56
 671.60
 674.24
 676.62
 678.75
 680.78
 682.60
 684.14
 685.53
 686.67
 687.71
 688.64
 689.27
 689.95
 690.65
 691.29
 691.66
 691.89
 692.10
 692.29
 692.26
 692.04
 691.93
 691.54
 691.29
 690.86
 690.17
 689.65
 689.19
 688.67
 688.20
 687.58
 687.02
 686.42
 685.78
 685.00
 684.40
 683.36
 682.43
 681.38
 680.14
 678.93
 677.34
 676.00
 674.60
 673.24
 672.02
 670.72
 669.54
 668.29
 667.16
 666.15
 665.03
 663.93
 662.73
 661.46
 659.92
 658.02
 656.22
 653.90
 652.01
 650.01
 648.21
 646.39
 644.55
 642.69
 640.92
 638.63
 636.37
 634.13
 631.82
 629.74
 627.76
 626.59
 626.23
 626.40
 626.86
 627.28
 627.45
 627.61
 628.64
 631.18
 635.26
 640.84
 646.45
 652.31
 657.68
 662.81
 668.83
 676.04
 684.64
 693.28
 701.65
 709.18
 715.87
 721.88
 727.49
 734.44
 742.00
 749.70
 755.13
 758.52
 759.96
 758.67
 755.70
 750.53
 743.68
 734.51
 725.26
 717.53
 708.68
 700.91
 693.72
 688.05
 680.94
 675.05
 670.64
 664.88
 660.79
 656.31
 652.98
 649.98
 646.48
 643.64
 640.17
 637.46
 634.51
 632.66
 630.69
 628.62
 627.26
 625.44
 624.39
 622.85
 621.17
 618.75
 616.48
 615.03
 612.33
 610.19
 606.87
 604.19
 601.87
 572.08
 573.27
 573.35
 573.91
 573.82
 573.44
 573.49
 547.54
 550.29
 526.46
 530.41
 518.07
 497.17
 504.15
 484.43
 492.79
 474.41
 469.57
 460.51
 445.06
 457.16
 442.64
 454.98
 442.68
 454.81
 465.43
 474.69
 483.92
 491.33
 499.09
 505.38
 511.75
 517.47
 522.12
 527.51
 531.66
 536.19
 539.78
 543.40
 546.56
 549.10
 551.89
 553.70
 556.13
 557.52
 558.97
 560.27
 561.24
 562.12
 562.31
 562.68
 562.31
 562.08
 540.47
 518.02
 500.82
 482.04
 465.23
 449.91
 436.12
 423.91
 412.82
 402.94
 393.44
 385.50
 378.35
 372.01
 366.31
 361.28
 356.85
 352.37
 367.43
 386.29
 403.46
 419.41
 433.77
 447.39
 459.65
 471.19
 481.77
 491.29
 500.56
 509.21
 517.59
 525.93
 534.34
 543.10
 552.29
 561.96
 571.47
 581.12
 590.61
 599.95
 608.95
 617.56
 626.10
 633.89
 641.30
 648.07
 654.36
 660.13
 665.32
 670.08
 674.28
 678.35
 682.01
 685.31
 688.48
 690.93
 693.24
 695.22
 697.09
 698.88
 700.50
 701.95
 703.15
 704.34
 705.40
 706.26
 707.04
 707.53
 708.08
 708.37
 708.53
 708.58
 708.52
 708.17
 707.55
 706.90
 705.91
 704.92
 703.33
 701.39
 699.35
 697.12
 694.71
 692.14
 689.72
 687.55
 685.29
 683.57
 682.21
 681.09
 680.08
 679.57
 679.31
 679.08
 678.87
 678.49
 678.14
 677.52
 676.57
 675.31
 673.68
 672.11
 670.50
 668.85
 667.17
 665.65
 664.09
 662.68
 661.11
 659.00
 657.10
 655.19
 653.87
 652.68
 651.51
 650.26
 648.84
 647.65
 646.09
 644.68
 643.91
 643.92
 644.93
 646.34
 648.10
 649.69
 651.62
 654.26
 658.23
 664.01
 671.61
 680.55
 690.19
 700.07
 710.67
 721.50
 732.45
 743.01
 752.60
 761.14
 768.83
 775.85
 782.16
 787.75
 792.67
 797.40
 800.26
 799.64
 795.87
 787.39
 776.75
 765.87
 755.99
 746.39
 737.15
 727.83
 718.55
 710.40
 701.56
 693.90
 686.21
 679.19
 673.27
 668.44
 663.90
 659.81
 656.13
 652.42
 648.77
 645.20
 641.08
 637.97
 634.87
 632.68
 630.52
 628.16
 625.75
 622.37
 619.34
 586.40
 557.06
 529.96
 535.36
 541.22
 546.80
 552.22
 556.90
 561.61
 566.05
 570.64
 575.18
 578.86
 583.68
 587.41
 590.77
 594.09
 597.08
 599.57
 600.92
 602.42
 602.88
 602.69
 602.32
 601.09
 600.28
 598.85
 597.47
 567.52
 540.47
 518.02
 496.12
 504.91
 484.42
 466.08
 451.87
 436.88
 430.79
 418.01
 433.71
 420.74
 418.47
 407.32
 397.09
 388.58
 380.32
 372.99
 366.09
 360.08
 354.17
 349.36
 344.42
 340.48
 337.43
 334.09
 331.28
 328.75
 326.48
 324.73
 322.76
 321.08
 319.67
 318.60
 317.14
 316.13
 315.32
 314.49
 313.94
 313.24
 312.82
 312.44
 312.19
 311.87
 311.69
 311.42
 311.18
 311.16
 311.14
 311.13
 311.22
 311.19
 311.47
 311.43
 311.58
 311.83
 312.04
 311.64
 311.98
 312.68
 313.21
 313.79
 320.21
 343.19
 364.67
 384.30
 402.27
 418.95
 434.35
 448.72
 462.04
 474.54
 486.49
 497.94
 509.14
 519.63
 529.97
 540.07
 550.06
 559.86
 569.37
 578.83
 587.85
 596.87
 605.28
 613.35
 621.12
 628.40
 635.46
 642.02
 648.02
 653.81
 659.13
 664.22
 668.60
 672.84
 676.65
 679.99
 682.99
 685.49
 688.04
 690.14
 692.42
 693.98
 695.58
 696.92
 698.03
 699.03
 700.03
 700.72
 701.25
 701.83
 702.24
 702.42
 702.68
 702.71
 702.84
 702.95
 703.06
 702.95
 702.86
 702.77
 702.69
 702.43
 702.18
 701.76
 701.59
 701.13
 701.02
 700.51
 700.06
 699.56
 699.00
 698.60
 698.04
 697.44
 696.79
 696.01
 695.21
 694.09
 693.08
 691.87
 690.89
 689.80
 688.42
 686.98
 685.28
 683.55
 681.60
 679.34
 677.10
 674.59
 672.03
 669.43
 666.79
 664.11
 661.60
 659.14
 656.42
 653.88
 651.19
 648.57
 646.02
 643.61
 641.15
 639.04
 637.03
 635.13
 633.22
 631.50
 629.85
 628.26
 626.54
 625.08
 623.87
 622.49
 621.24
 619.91
 618.62
 617.26
 616.03
 614.43
 612.89
 611.40
 610.06
 608.95
 607.96
 607.36
 607.03
 607.12
 607.61
 608.85
 610.96
 614.07
 618.06
 622.96
 627.96
 633.06
 637.96
 643.56
 649.81
 657.42
 665.48
 673.23
 680.71
 687.54
 694.39
 700.25
 705.82
 711.44
 716.60
 721.24
 724.31
 726.18
 726.56
 726.01
 724.01
 720.51
 716.75
 712.38
 707.64
 701.78
 696.10
 690.49
 683.94
 678.85
 673.06
 668.06
 662.95
 657.55
 652.60
 646.34
 642.01
 637.01
 633.30
 630.47
 627.63
 625.56
 613.21
 612.49
 610.54
 608.68
 608.12
 607.30
 607.27
 574.95
 577.25
 548.33
 521.39
 527.55
 503.30
 512.57
 490.11
 500.40
 480.06
 470.25
 482.43
 462.99
 473.09
 454.98
 468.18
 452.76
 437.19
 452.07
 457.46
 470.72
 482.04
 492.94
 501.95
 510.25
 517.53
 523.07
 528.67
 506.20
 511.38
 490.64
 471.88
 454.39
 439.25
 425.93
 413.93
 403.24
 393.42
 384.67
 376.51
 369.76
 363.58
 358.22
 353.40
 349.16
 345.34
 341.81
 338.73
 335.96
 333.56
 331.50
 329.65
 328.39
 327.35
 326.61
 349.25
 369.33
 388.19
 405.28
 420.65
 435.08
 447.77
 459.50
 470.55
 480.89
 490.70
 500.33
 509.50
 518.25
 527.12
 535.91
 544.82
 553.54
 562.19
 571.17
 579.85
 588.66
 597.40
 605.86
 614.47
 622.63
 630.46
 638.02
 645.21
 652.19
 659.17
 665.96
 672.26
 678.23
 683.81
 689.23
 694.01
 698.71
 702.94
 707.14
 710.63
 713.67
 716.60
 719.14
 721.42
 723.38
 725.14
 726.83
 727.95
 728.85
 729.47
 729.72
 730.05
 729.84
 729.56
 729.10
 728.79
 728.21
 727.59
 727.13
 726.72
 725.95
 725.05
 724.35
 723.61
 722.75
 721.98
 720.88
 720.19
 719.07
 717.96
 716.67
 715.20
 713.78
 712.00
 710.10
 707.89
 705.70
 703.53
 700.88
 698.29
 695.56
 692.91
 690.12
 687.20
 684.38
 681.65
 678.78
 675.90
 673.01
 670.11
 667.60
 665.04
 662.54
 660.08
 657.67
 655.21
 652.49
 649.44
 646.49
 643.44
 640.90
 638.71
 636.84
 635.15
 633.94
 632.85
 632.16
 632.14
 632.43
 633.39
 634.85
 637.36
 640.43
 643.68
 647.82
 652.13
 657.22
 662.90
 669.61
 676.35
 682.61
 688.35
 693.22
 697.70
 701.73
 705.15
 708.34
 711.50
 714.05
 714.75
 714.07
 711.07
 706.76
 702.78
 698.71
 694.73
 690.26
 685.83
 679.65
 673.39
 667.65
 661.78
 657.40
 652.56
 649.31
 646.68
 644.41
 641.37
 637.33
 633.90
 629.71
 627.64
 625.07
 622.47
 620.02
 616.12
 612.91
 581.82
 581.73
 553.66
 528.39
 528.75
 505.98
 512.68
 491.71
 499.84
 481.66
 464.99
 475.59
 458.53
 469.88
 453.39
 464.55
 449.10
 433.99
 422.59
 410.63
 405.57
 395.61
 386.65
 378.88
 371.70
 369.93
 363.73
 384.06
 376.65
 394.99
 386.99
 378.99
 397.29
 388.86
 406.28
 397.15
 413.53
 406.98
 399.38
 415.74
 405.87
 421.78
 435.60
 448.74
 460.27
 469.94
 479.55
 478.59
 487.03
 469.73
 454.16
 439.84
 427.26
 415.63
 404.87
 395.38
 386.64
 379.08
 372.27
 366.24
 360.02
 355.02
 350.82
 346.93
 343.54
 340.49
 337.84
 334.65
 332.09
 330.48
 328.93
 327.84
 326.65
 325.79
 324.31
 323.48
 323.03
 322.63
 322.37
 322.03
 321.93
 328.23
 333.01
 353.51
 373.56
 391.70
 407.93
 422.54
 436.08
 448.38
 459.74
 469.96
 478.87
 487.18
 494.76
 501.59
 507.83
 513.15
 518.13
 522.82
 527.14
 531.32
 535.49
 539.34
 543.41
 547.87
 552.08
 556.77
 561.99
 567.70
 574.23
 580.80
 587.62
 594.46
 601.41
 608.07
 614.77
 621.59
 627.93
 633.94
 639.74
 645.07
 649.96
 654.07
 657.86
 661.07
 664.07
 666.66
 668.99
 670.99
 672.99
 674.60
 675.94
 677.04
 678.14
 678.92
 679.93
 680.54
 681.18
 681.87
 682.28
 682.55
 682.80
 682.92
 683.12
 683.11
 683.20
 682.88
 682.69
 682.62
 682.36
 682.23
 681.90
 681.41
 680.77
 679.99
 679.39
 678.56
 677.60
 676.64
 675.48
 674.23
 672.91
 671.61
 669.95
 668.46
 666.91
 665.12
 663.41
 661.67
 660.10
 658.19
 656.27
 654.64
 652.78
 650.70
 648.83
 646.65
 644.48
 642.54
 640.58
 638.52
 636.37
 634.23
 632.01
 629.71
 627.44
 624.99
 622.50
 620.15
 618.03
 616.03
 613.73
 611.75
 609.78
 607.90
 605.91
 603.72
 601.65
 599.08
 596.87
 594.99
 593.59
 592.73
 592.16
 591.74
 591.27
 591.24
 591.42
 592.27
 593.65
 595.18
 597.26
 599.64
 602.37
 605.44
 608.99
 612.99
 617.29
 622.46
 628.62
 635.06
 641.25
 647.33
 653.19
 658.97
 664.28
 669.65
 673.18
 677.37
 680.83
 682.55
 683.39
 683.05
 681.85
 680.06
 677.66
 674.69
 670.72
 666.85
 663.16
 658.45
 654.60
 650.74
 647.57
 643.71
 640.14
 636.83
 631.94
 627.05
 622.44
 617.60
 614.24
 610.62
 606.75
 603.78
 599.80
 596.52
 577.97
 575.97
 574.27
 549.05
 549.64
 527.28
 506.75
 511.08
 492.67
 498.30
 480.47
 465.32
 451.49
 438.64
 428.58
 418.32
 409.09
 401.08
 393.57
 389.11
 383.00
 391.40
 385.46
 379.92
 378.92
 373.23
 389.11
 383.30
 389.27
 383.84
 378.66
 392.59
 386.53
 381.38
 376.84
 372.66
 388.99
 383.49
 390.34
 384.91
 379.22
 377.70
 373.63
 389.46
 384.32
 387.69
 389.32
 384.09
 399.08
 392.17
 404.65
 417.29
 428.16
 438.74
 447.67
 456.00
 444.50
 434.05
 424.55
 416.29
 408.46
 401.52
 395.26
 389.64
 383.97
 379.48
 375.33
 371.70
 368.43
 365.38
 362.65
 360.08
 357.67
 355.21
 353.58
 352.33
 351.09
 350.08
 349.28
 348.65
 347.88
 347.40
 346.96
 346.66
 362.59
 379.03
 393.93
 407.74
 420.46
 432.62
 443.56
 453.50
 462.95
 471.56
 479.90
 487.81
 495.43
 502.99
 510.29
 517.96
 525.46
 533.72
 542.24
 550.72
 559.25
 567.72
 576.05
 584.15
 591.93
 599.44
 606.49
 613.44
 619.80
 625.92
 631.63
 636.87
 641.58
 645.92
 650.03
 654.03
 657.62
 661.16
 664.24
 667.42
 670.38
 673.14
 675.63
 677.86
 680.08
 681.97
 683.87
 685.59
 687.13
 688.81
 690.03
 690.93
 691.54
 692.18
 692.56
 692.71
 693.04
 693.23
 693.31
 693.08
 692.67
 692.50
 691.85
 691.17
 690.35
 689.62
 688.55
 687.40
 686.26
 684.93
 683.94
 682.75
 681.37
 680.13
 678.82
 677.44
 675.99
 674.60
 672.94
 671.44
 669.70
 667.83
 666.05
 664.14
 662.03
 659.82
 657.34
 655.01
 652.61
 650.35
 647.91
 645.62
 643.36
 641.02
 638.92
 637.03
 635.13
 633.51
 631.76
 630.19
 628.57
 627.21
 625.89
 624.70
 623.83
 622.75
 621.87
 620.99
 620.19
 619.37
 618.63
 618.17
 617.55
 617.00
 616.40
 615.96
 615.56
 615.20
 615.18
 615.17
 615.25
 615.02
 614.82
 614.64
 614.48
 614.03
 613.33
 612.69
 611.72
 610.95
 609.96
 608.66
 607.29
 605.86
 604.48
 602.93
 601.64
 600.07
 598.57
 597.21
 595.59
 594.13
 592.42
 590.48
 588.53
 586.57
 584.92
 583.23
 581.60
 580.14
 578.93
 577.84
 576.65
 575.49
 574.04
 572.63
 571.27
 570.34
 569.91
 569.92
 570.63
 571.36
 572.63
 574.06
 575.66
 577.49
 579.54
 582.49
 586.04
 590.34
 595.00
 599.90
 605.11
 611.00
 617.30
 623.87
 631.08
 638.68
 646.01
 653.21
 658.79
 663.71
 667.84
 671.35
 674.02
 676.62
 679.15
 681.34
 683.00
 683.60
 682.54
 679.89
 675.80
 671.82
 666.84
 662.35
 658.22
 654.80
 651.42
 646.98
 642.38
 636.34
 631.91
 627.52
 624.66
 622.40
 620.36
 618.72
 615.85
 613.56
 612.01
 610.51
 608.96
 605.86
 603.57
 601.42
 599.08
 596.27
 567.54
 567.19
 541.57
 543.31
 520.28
 499.55
 499.00
 480.30
 482.17
 465.45
 450.41
 437.07
 424.86
 414.17
 403.86
 395.17
 387.25
 380.13
 373.91
 368.22
 370.20
 364.88
 360.59
 356.33
 352.50
 349.35
 345.42
 343.07
 340.37
 338.23
 336.41
 334.87
 341.48
 339.43
 361.09
 366.98
 385.98
 402.88
 418.20
 432.68
 444.71
 456.34
 466.20
 475.48
 483.33
 490.50
 497.25
 502.43
 507.78
 511.50
 515.55
 519.20
 521.78
 525.20
 527.68
 530.51
 510.36
 492.03
 475.22
 460.10
 446.39
 434.25
 423.43
 413.78
 405.11
 397.19
 389.48
 382.93
 377.33
 372.40
 368.06
 364.16
 360.44
 357.20
 354.28
 351.75
 349.57
 347.62
 345.75
 344.18
 342.66
 341.40
 340.16
 339.24
 338.22
 337.49
 336.84
 336.56
 336.10
 335.09
 334.88
 334.60
 334.44
 334.29
 334.26
 333.54
 333.98
 347.99
 364.89
 382.00
 397.40
 411.36
 423.82
 435.04
 445.44
 455.09
 463.88
 471.79
 479.32
 486.68
 493.42
 500.27
 506.95
 513.45
 520.11
 526.70
 533.53
 540.67
 547.91
 555.52
 563.26
 571.44
 579.29
 587.26
 595.24
 602.81
 610.43
 617.39
 624.45
 630.91
 637.22
 643.19
 648.57
 653.82
 658.53
 662.98
 667.08
 671.37
 674.94
 678.24
 681.22
 684.00
 686.70
 689.03
 691.03
 692.82
 694.34
 695.81
 697.13
 698.11
 699.00
 700.00
 700.90
 701.51
 701.96
 702.46
 702.62
 702.86
 702.67
 702.50
 702.15
 701.64
 701.07
 700.37
 699.53
 698.68
 698.11
 697.30
 696.67
 696.00
 695.30
 694.77
 694.09
 693.58
 692.83
 692.24
 691.62
 690.86
 690.07
 688.96
 687.87
 686.38
 684.94
 683.25
 681.32
 679.29
 677.26
 675.24
 672.91
 670.52
 667.87
 664.98
 662.28
 659.46
 656.91
 654.12
 651.41
 648.87
 646.08
 643.57
 641.01
 638.51
 636.06
 633.66
 631.29
 628.96
 626.86
 624.68
 622.61
 620.25
 617.82
 615.34
 612.71
 610.24
 607.61
 605.15
 602.74
 600.46
 598.32
 596.09
 593.98
 591.98
 590.18
 588.46
 586.72
 585.34
 583.81
 582.53
 581.38
 580.44
 579.49
 578.75
 578.07
 577.56
 577.91
 578.42
 579.77
 581.70
 584.23
 587.30
 590.47
 593.93
 597.53
 601.98
 606.98
 613.08
 619.68
 626.61
 633.55
 640.09
 646.98
 653.79
 660.31
 667.08
 673.17
 678.75
 683.28
 687.15
 689.93
 691.94
 693.55
 695.19
 696.87
 697.49
 697.34
 695.00
 689.80
 683.82
 677.14
 670.63
 663.96
 659.57
 656.01
 652.91
 650.02
 645.12
 641.10
 637.29
 632.66
 627.90
 622.91
 620.22
 616.50
 614.75
 611.97
 609.77
 606.40
 602.66
 599.39
 577.75
 576.38
 550.04
 535.34
 513.30
 493.57
 485.21
 468.29
 477.16
 461.25
 468.02
 454.22
 441.30
 452.17
 438.95
 450.46
 437.71
 449.24
 436.72
 424.94
 435.75
 423.37
 436.44
 424.79
 428.51
 427.56
 417.31
 430.88
 419.19
 432.47
 421.82
 434.84
 445.56
 455.30
 465.17
 450.55
 461.10
 469.99
 478.39
 485.75
 492.08
 498.37
 489.03
 495.33
 500.60
 505.74
 510.46
 514.42
 518.07
 520.07
 523.26
 520.13
 523.22
 521.50
 520.15
 522.83
 503.45
 494.31
 477.67
 462.71
 449.04
 436.43
 425.49
 415.94
 406.15
 397.63
 389.97
 383.37
 377.53
 372.38
 367.74
 362.77
 358.29
 355.16
 352.25
 349.62
 347.26
 345.43
 343.19
 341.77
 340.59
 339.53
 338.58
 337.82
 337.34
 336.61
 349.25
 368.02
 385.22
 400.80
 415.02
 428.02
 440.01
 450.91
 461.02
 470.32
 478.79
 486.71
 494.04
 501.53
 508.58
 515.22
 522.00
 528.30
 534.87
 540.98
 547.28
 553.56
 560.10
 567.19
 574.27
 581.64
 589.08
 596.47
 603.92
 611.13
 618.32
 625.29
 631.96
 638.26
 644.34
 649.90
 655.01
 659.91
 664.12
 668.21
 672.09
 675.38
 678.44
 681.10
 683.79
 686.01
 687.71
 689.34
 690.40
 691.56
 692.31
 693.08
 693.57
 693.91
 694.32
 694.39
 694.75
 694.77
 694.80
 694.62
 694.46
 694.21
 693.79
 693.51
 693.06
 692.55
 691.80
 691.22
 690.40
 689.56
 688.70
 687.53
 686.38
 685.04
 683.54
 681.98
 680.38
 678.85
 677.06
 675.45
 673.81
 672.03
 670.13
 668.41
 666.47
 664.42
 662.48
 660.33
 658.20
 655.98
 653.68
 651.61
 649.25
 647.03
 644.62
 642.36
 640.13
 637.81
 635.63
 633.57
 631.51
 629.46
 627.41
 625.47
 623.43
 621.48
 619.63
 617.77
 615.89
 614.00
 612.10
 610.09
 608.18
 606.07
 604.16
 602.54
 600.79
 599.61
 598.25
 597.32
 596.19
 595.07
 593.77
 592.69
 591.62
 590.36
 589.22
 587.60
 586.14
 584.83
 583.84
 583.06
 582.25
 582.03
 581.42
 581.08
 580.87
 580.79
 580.81
 580.83
 581.24
 581.62
 581.96
 581.96
 582.07
 582.46
 582.81
 584.23
 586.21
 588.69
 590.42
 590.68
 590.71
 590.44
 590.69
 591.43
 592.68
 594.31
 596.48
 599.13
 601.42
 604.08
 607.17
 610.75
 614.88
 619.79
 625.01
 629.31
 632.58
 634.82
 637.04
 639.84
 642.95
 646.36
 649.22
 651.10
 651.69
 651.62
 651.36
 651.42
 651.68
 651.21
 651.49
 650.54
 648.79
 644.91
 640.92
 637.73
 634.35
 631.82
 629.04
 626.13
 622.82
 619.04
 615.83
 612.05
 609.75
 606.37
 604.53
 602.88
 600.09
 597.48
 579.43
 577.79
 575.91
 575.12
 573.71
 572.34
 571.80
 546.12
 547.51
 543.96
 545.76
 547.29
 548.16
 549.24
 526.12
 514.21
 494.49
 476.94
 461.54
 447.09
 434.48
 422.83
 412.65
 403.38
 394.95
 387.85
 381.07
 375.26
 369.73
 372.96
 367.76
 363.29
 359.36
 354.72
 364.05
 360.15
 378.93
 375.34
 385.10
 401.49
 393.54
 408.69
 419.52
 432.97
 444.57
 454.91
 464.42
 472.38
 480.14
 486.53
 492.78
 498.00
 502.70
 490.83
 474.55
 472.59
 458.33
 446.20
 434.28
 423.55
 414.00
 405.60
 397.64
 390.67
 384.61
 378.85
 373.86
 369.37
 365.44
 361.19
 357.67
 354.71
 352.24
 350.11
 348.20
 346.48
 344.23
 342.91
 341.72
 340.65
 339.68
 338.91
 338.42
 337.28
 336.75
 336.88
 336.69
 336.62
 338.56
 338.70
 350.93
 351.94
 369.95
 386.45
 401.61
 415.44
 427.60
 438.94
 449.05
 458.44
 467.10
 474.99
 482.49
 489.74
 496.87
 503.48
 510.03
 516.43
 522.59
 528.73
 534.75
 541.08
 547.47
 554.12
 561.11
 568.40
 575.86
 583.37
 591.04
 598.63
 605.87
 613.28
 620.15
 626.74
 633.07
 639.06
 644.75
 649.98
 654.98
 659.18
 663.26
 666.84
 670.25
 673.23
 676.01
 678.40
 680.56
 682.71
 684.64
 686.27
 687.75
 688.77
 690.19
 691.07
 691.77
 692.29
 692.96
 693.47
 693.52
 693.47
 693.42
 693.08
 692.77
 692.29
 691.76
 691.09
 690.48
 689.63
 688.87
 687.88
 686.99
 685.99
 684.89
 684.10
 682.89
 681.60
 680.44
 679.00
 677.70
 676.03
 674.43
 672.58
 670.83
 668.94
 666.65
 664.48
 662.14
 659.72
 657.05
 654.54
 651.79
 649.11
 646.40
 643.56
 641.00
 638.20
 635.68
 633.01
 630.51
 628.06
 625.66
 623.59
 621.13
 618.72
 616.15
 613.73
 611.36
 609.12
 607.31
 605.48
 603.83
 602.55
 601.19
 600.17
 598.86
 597.67
 596.00
 594.30
 593.37
 592.64
 591.97
 591.37
 591.44
 591.69
 592.32
 593.39
 594.85
 597.07
 599.46
 602.21
 605.19
 608.37
 612.24
 616.61
 621.95
 627.16
 632.84
 638.56
 644.70
 650.63
 656.37
 662.23
 667.71
 673.14
 677.92
 681.63
 684.37
 686.03
 686.93
 687.14
 687.12
 686.41
 685.17
 683.35
 680.42
 676.17
 671.36
 666.52
 662.17
 658.75
 655.38
 652.44
 650.10
 647.19
 644.97
 642.17
 639.95
 637.96
 635.46
 633.72
 632.04
 631.34
 629.91
 628.12
 625.50
 621.05
 617.85
 615.46
 614.42
 613.38
 611.44
 607.99
 577.99
 576.70
 575.23
 574.30
 573.47
 573.63
 573.16
 572.55
 572.09
 570.78
 569.90
 544.51
 525.06
 504.76
 485.98
 483.28
 466.75
 474.98
 459.48
 448.43
 436.49
 424.94
 415.25
 405.72
 401.35
 393.31
 386.18
 379.86
 373.18
 368.36
 363.62
 359.56
 355.91
 352.52
 349.56
 346.91
 353.22
 350.29
 369.77
 365.59
 362.13
 358.92
 355.13
 374.21
 369.99
 387.59
 396.63
 411.27
 424.74
 420.57
 432.91
 423.62
 435.86
 446.57
 456.52
 465.56
 473.41
 480.77
 482.59
 488.83
 494.25
 499.02
 488.62
 473.06
 479.05
 464.25
 471.72
 465.45
 470.51
 459.85
 447.17
 435.05
 424.75
 415.77
 407.50
 400.15
 393.33
 387.20
 381.78
 376.70
 372.23
 367.91
 364.22
 360.69
 357.73
 354.65
 352.19
 350.07
 347.96
 346.17
 344.45
 343.00
 341.70
 340.53
 339.58
 338.92
 338.23
 337.51
 336.86
 336.77
 336.49
 338.34
 341.61
 344.35
 362.01
 378.61
 393.45
 407.01
 419.51
 431.05
 441.55
 451.29
 460.37
 468.83
 476.75
 484.37
 491.73
 498.96
 506.46
 513.92
 521.73
 529.55
 537.60
 546.14
 554.52
 562.97
 571.47
 580.03
 588.22
 596.40
 604.06
 611.46
 618.51
 625.26
 631.63
 637.57
 643.01
 648.21
 652.89
 657.30
 661.37
 664.93
 668.04
 670.84
 673.55
 675.80
 677.82
 679.64
 681.17
 682.35
 683.12
 683.91
 684.12
 684.41
 684.46
 684.52
 684.57
 684.41
 684.27
 683.84
 683.56
 683.10
 682.79
 682.41
 682.07
 681.66
 681.20
 680.88
 680.49
 680.54
 680.39
 680.35
 680.71
 681.04
 681.54
 682.08
 682.58
 682.92
 682.93
 682.53
 681.68
 680.61
 679.25
 677.53
 675.27
 672.75
 670.07
 667.26
 664.24
 661.21
 658.09
 654.88
 651.49
 648.25
 645.02
 642.02
 639.02
 636.22
 633.29
 630.46
 627.82
 625.14
 622.82
 620.64
 618.68
 616.71
 614.84
 612.95
 611.06
 609.25
 607.73
 606.75
 605.98
 604.88
 604.09
 602.98
 601.59
 600.13
 598.91
 597.92
 597.13
 596.82
 596.54
 596.98
 598.28
 600.66
 604.29
 608.96
 614.76
 621.19
 628.27
 635.64
 643.28
 651.15
 658.94
 667.34
 675.61
 683.75
 691.47
 699.02
 705.32
 710.19
 714.57
 717.91
 720.72
 721.85
 722.07
 720.86
 717.87
 711.69
 702.32
 692.49
 683.24
 674.31
 666.08
 658.07
 650.97
 643.07
 637.46
 631.52
 625.56
 620.91
 589.22
 587.70
 585.23
 583.30
 556.37
 556.84
 533.05
 530.65
 533.28
 515.85
 519.87
 523.28
 526.65
 529.29
 507.66
 488.99
 472.39
 480.65
 486.89
 477.20
 483.78
 467.70
 475.03
 460.33
 469.20
 455.78
 443.80
 452.02
 439.82
 450.34
 438.10
 448.89
 437.10
 426.49
 429.04
 419.24
 431.51
 421.16
 411.95
 403.65
 396.19
 389.87
 383.78
 398.90
 391.91
 406.42
 398.88
 392.19
 394.87
 388.59
 403.33
 396.59
 410.63
 406.47
 412.72
 425.25
 416.23
 427.90
 438.81
 449.23
 458.41
 466.87
 474.58
 481.12
 487.91
 493.22
 498.40
 503.16
 507.74
 511.57
 514.71
 517.84
 519.96
 522.16
 524.24
 525.72
 527.25
 528.02
 528.82
 509.34
 511.30
 493.87
 478.19
 464.17
 451.55
 440.40
 430.26
 421.23
 412.81
 405.23
 398.40
 392.36
 387.03
 381.62
 377.26
 373.44
 370.19
 366.97
 364.08
 361.37
 359.03
 357.23
 355.41
 353.96
 352.57
 351.21
 350.19
 349.27
 348.34
 347.61
 346.85
 346.26
 345.84
 345.85
 345.47
 345.62
 345.26
 344.93
 344.64
 344.48
 347.73
 354.76
 371.28
 386.55
 400.30
 413.07
 424.36
 434.82
 444.44
 453.10
 461.29
 468.86
 475.77
 482.10
 488.19
 493.77
 499.29
 504.36
 509.03
 513.82
 518.24
 522.92
 527.42
 531.88
 536.59
 541.13
 545.92
 551.03
 556.33
 561.89
 568.00
 574.20
 580.68
 587.21
 593.79
 600.31
 606.88
 613.19
 619.67
 625.51
 631.36
 636.92
 642.43
 647.59
 652.53
 657.57
 661.82
 665.84
 669.45
 672.91
 676.12
 679.10
 682.19
 684.87
 687.19
 689.47
 691.52
 693.07
 694.36
 696.03
 696.82
 697.74
 698.47
 698.92
 699.23
 699.41
 699.56
 699.71
 699.64
 699.37
 699.14
 698.82
 698.44
 698.10
 697.59
 697.23
 696.91
 696.71
 696.74
 696.57
 696.71
 697.24
 697.42
 697.58
 697.82
 698.04
 698.23
 698.51
 698.76
 698.78
 698.70
 698.63
 698.27
 697.74
 697.27
 696.54
 695.99
 695.09
 694.18
 693.46
 692.62
 691.75
 690.88
 689.99
 689.19
 688.17
 687.26
 686.33
 685.40
 684.26
 683.53
 682.18
 681.06
 679.85
 678.17
 676.55
 674.80
 672.92
 670.73
 668.45
 666.11
 663.50
 660.95
 658.15
 655.54
 652.88
 650.40
 647.96
 645.16
 642.44
 639.60
 636.84
 633.96
 631.06
 628.15
 625.44
 622.69
 619.63
 616.76
 613.79
 611.01
 608.41
 605.67
 603.20
 600.68
 598.21
 595.99
 593.99
 592.09
 590.28
 588.95
 587.46
 586.21
 584.69
 583.52
 582.77
 582.19
 581.97
 581.38
 580.94
 580.64
 580.58
 580.92
 581.63
 582.77
 583.69
 584.72
 585.55
 586.89
 588.80
 591.12
 594.01
 597.21
 600.59
 603.43
 605.99
 608.59
 611.53
 614.78
 618.10
 621.69
 625.62
 629.36
 633.12
 637.01
 641.21
 644.99
 648.89
 652.30
 655.87
 659.88
 662.89
 665.71
 667.63
 669.17
 669.45
 668.31
 666.18
 663.46
 660.61
 656.75
 652.48
 646.93
 638.84
 631.15
 624.24
 619.31
 613.78
 608.90
 604.01
 599.01
 594.91
 567.62
 566.76
 542.28
 540.95
 519.36
 499.22
 482.00
 466.10
 452.29
 439.46
 428.02
 417.91
 408.52
 409.27
 400.54
 404.59
 396.13
 388.42
 381.28
 374.85
 382.46
 375.42
 394.37
 385.94
 393.94
 388.55
 403.29
 417.16
 406.55
 422.49
 411.44
 423.70
 412.63
 412.17
 426.95
 431.06
 444.55
 455.79
 466.52
 475.56
 481.31
 488.88
 482.29
 489.96
 496.26
 502.24
 507.41
 511.57
 515.12
 508.90
 513.11
 510.90
 514.11
 496.50
 479.75
 463.88
 450.29
 439.56
 428.60
 421.14
 412.43
 404.09
 396.88
 390.29
 384.66
 379.39
 374.95
 370.76
 367.18
 363.97
 360.67
 358.00
 355.70
 353.63
 351.87
 350.18
 348.66
 346.50
 345.25
 344.22
 343.40
 342.66
 342.09
 341.78
 340.71
 340.54
 340.28
 344.95
 353.26
 370.23
 386.11
 399.70
 412.63
 424.27
 434.64
 444.18
 452.76
 460.58
 466.92
 473.33
 479.10
 484.29
 489.26
 493.83
 498.05
 502.05
 505.84
 509.56
 513.00
 516.90
 520.21
 523.79
 527.21
 530.59
 534.23
 538.41
 543.07
 547.76
 553.18
 558.77
 564.89
 571.20
 577.68
 584.31
 590.88
 597.59
 603.93
 610.34
 616.51
 622.36
 628.12
 633.31
 638.28
 642.85
 647.06
 650.96
 654.56
 657.81
 660.83
 663.44
 665.80
 667.72
 669.55
 671.39
 672.95
 674.46
 676.01
 677.31
 678.48
 679.53
 680.38
 681.34
 682.01
 682.71
 683.24
 683.61
 684.15
 684.34
 684.70
 684.63
 684.67
 684.50
 684.45
 684.51
 684.36
 684.32
 683.89
 683.60
 683.14
 682.73
 682.45
 681.71
 681.04
 680.13
 679.32
 678.39
 677.55
 676.59
 675.43
 674.49
 673.34
 672.41
 671.17
 670.15
 669.04
 668.03
 667.03
 665.83
 664.54
 663.39
 662.05
 660.74
 659.27
 657.94
 656.45
 655.10
 653.49
 651.84
 650.36
 648.72
 647.35
 645.62
 643.85
 642.17
 640.55
 639.00
 637.40
 635.86
 634.17
 632.45
 630.81
 629.23
 627.51
 625.65
 623.89
 622.20
 620.48
 618.83
 617.15
 615.63
 613.67
 612.00
 610.20
 608.68
 607.21
 605.59
 604.23
 602.91
 601.42
 599.58
 597.92
 596.43
 594.68
 593.02
 591.31
 589.78
 588.10
 586.69
 585.42
 584.08
 582.77
 581.40
 580.16
 578.84
 577.36
 575.92
 574.53
 573.38
 572.14
 571.12
 570.51
 570.16
 570.25
 570.82
 571.74
 572.56
 573.41
 574.27
 575.44
 577.10
 579.19
 582.17
 585.85
 590.37
 595.13
 599.72
 604.34
 609.21
 614.59
 620.53
 627.28
 634.15
 641.03
 647.03
 652.33
 657.50
 662.15
 666.73
 671.16
 674.64
 677.78
 679.80
 680.82
 680.64
 679.77
 677.20
 674.18
 669.16
 664.24
 659.72
 654.75
 649.97
 643.98
 638.68
 633.51
 628.66
 623.69
 618.82
 614.24
 608.92
 604.43
 600.38
 572.34
 546.91
 524.12
 526.51
 506.26
 510.33
 491.70
 474.83
 460.35
 446.71
 438.24
 427.32
 417.78
 408.81
 400.52
 393.37
 386.64
 381.07
 375.76
 370.39
 366.25
 362.42
 359.78
 356.70
 354.13
 351.72
 348.75
 346.87
 345.19
 343.97
 342.57
 341.71
 340.84
 339.36
 338.72
 338.15
 337.83
 337.35
 337.12
 336.70
 335.93
 335.64
 335.48
 335.63
 335.57
 335.71
 335.04
 335.13
 335.32
 335.49
 348.44
 347.30
 365.77
 363.39
 379.85
 394.67
 408.10
 421.19
 432.57
 443.41
 452.87
 461.68
 469.42
 476.67
 483.31
 488.78
 494.10
 498.49
 502.54
 505.89
 508.50
 511.15
 494.43
 489.99
 474.79
 460.61
 447.45
 436.51
 426.95
 418.06
 416.35
 408.52
 401.57
 395.21
 389.59
 384.33
 379.70
 375.63
 371.96
 368.67
 365.10
 362.19
 359.77
 357.69
 355.93
 354.33
 353.20
 352.18
 350.76
 349.99
 349.29
 348.96
 348.66
 349.90
 350.21
 360.09
 376.28
 390.85
 404.26
 416.04
 426.63
 436.57
 445.51
 453.76
 460.99
 468.09
 474.58
 480.32
 485.89
 490.90
 495.71
 500.34
 504.90
 509.31
 513.78
 518.30
 522.37
 526.84
 530.95
 535.36
 539.72
 544.15
 549.13
 554.02
 559.12
 564.31
 569.68
 575.11
 580.50
 586.15
 591.63
 597.17
 602.55
 607.80
 613.02
 618.22
 623.29
 628.17
 632.85
 637.36
 641.53
 645.67
 649.21
 652.69
 656.02
 659.52
 662.36
 665.23
 667.70
 670.13
 672.32
 674.19
 676.07
 677.56
 678.71
 679.94
 680.74
 681.57
 682.41
 683.07
 683.66
 684.20
 684.88
 685.19
 685.57
 685.91
 686.02
 686.32
 686.19
 685.97
 685.37
 684.83
 683.95
 683.16
 682.14
 681.23
 680.00
 678.50
 677.25
 675.83
 674.65
 673.18
 671.96
 670.57
 669.21
 667.79
 666.21
 664.69
 663.22
 661.40
 659.66
 657.69
 655.72
 653.45
 651.11
 648.70
 646.03
 643.62
 640.66
 637.69
 634.63
 631.66
 628.60
 625.54
 622.48
 619.43
 616.59
 613.43
 610.19
 607.27
 604.34
 601.61
 598.85
 596.56
 594.01
 591.81
 589.43
 586.98
 585.08
 582.88
 580.89
 579.00
 577.30
 575.67
 574.00
 572.70
 571.03
 569.63
 568.47
 567.22
 566.00
 564.80
 563.62
 562.36
 560.92
 559.23
 557.61
 556.25
 554.72
 553.15
 551.53
 550.08
 548.77
 547.59
 546.54
 545.78
 545.20
 544.68
 544.61
 544.05
 543.95
 543.65
 543.49
 543.34
 543.11
 542.99
 542.90
 543.31
 543.98
 544.98
 546.38
 547.94
 549.75
 551.67
 553.81
 556.52
 559.57
 563.32
 567.28
 571.56
 576.30
 581.77
 587.59
 593.93
 600.14
 606.33
 612.69
 618.92
 625.23
 631.41
 637.27
 642.64
 647.28
 651.55
 654.89
 657.30
 659.07
 660.07
 659.86
 657.87
 655.59
 650.93
 646.64
 640.97
 634.57
 630.02
 625.22
 621.29
 616.66
 611.20
 605.58
 600.62
 596.66
 568.49
 543.84
 521.76
 502.08
 484.17
 468.16
 454.04
 440.34
 429.20
 419.08
 410.17
 403.46
 395.91
 389.62
 383.66
 378.49
 373.74
 369.57
 365.81
 362.23
 359.41
 356.87
 354.48
 352.43
 350.59
 348.33
 346.90
 352.01
 350.21
 348.49
 347.14
 346.22
 346.50
 345.75
 362.68
 360.21
 376.99
 392.49
 406.94
 420.25
 432.02
 443.12
 452.61
 461.55
 469.19
 476.07
 482.17
 487.45
 492.30
 496.37
 500.34
 499.90
 501.81
 498.43
 482.79
 477.81
 463.33
 451.00
 439.80
 430.02
 420.91
 412.92
 405.63
 399.07
 393.46
 387.51
 382.66
 378.40
 374.66
 371.29
 368.46
 365.92
 362.82
 360.64
 358.48
 356.53
 354.88
 353.29
 352.16
 350.44
 349.70
 348.93
 348.34
 347.80
 347.42
 347.28
 346.35
 346.22
 346.10
 346.19
 346.37
 346.43
 358.09
 371.58
 386.62
 400.46
 412.41
 423.57
 433.51
 442.56
 450.91
 458.12
 465.00
 471.10
 476.69
 481.72
 486.45
 491.31
 495.58
 499.62
 503.36
 507.12
 510.71
 513.94
 517.44
 520.40
 523.66
 526.99
 530.49
 533.94
 537.65
 541.79
 545.71
 550.34
 555.30
 560.77
 566.50
 572.55
 578.99
 585.39
 592.05
 598.35
 604.71
 610.94
 616.85
 622.56
 627.91
 633.02
 637.71
 642.14
 646.23
 650.11
 653.99
 657.30
 660.67
 663.50
 666.15
 668.53
 670.58
 672.42
 674.18
 675.96
 677.27
 678.44
 679.60
 680.54
 681.68
 682.31
 683.38
 683.94
 684.35
 684.61
 684.95
 685.06
 684.85
 684.87
 684.58
 684.12
 683.61
 682.85
 681.96
 680.87
 679.78
 678.30
 676.77
 675.10
 673.29
 671.36
 669.42
 667.18
 664.86
 662.38
 659.64
 656.97
 654.28
 651.45
 648.60
 645.54
 642.49
 639.34
 636.31
 633.48
 630.53
 627.88
 625.09
 622.58
 620.12
 617.71
 615.64
 613.47
 611.33
 608.99
 606.69
 604.43
 602.18
 600.26
 598.34
 596.70
 594.73
 592.96
 591.46
 589.62
 587.96
 586.26
 584.73
 583.16
 581.74
 580.47
 579.52
 578.77
 577.99
 577.69
 577.52
 577.47
 577.83
 578.54
 579.89
 581.50
 583.65
 585.78
 588.31
 591.08
 594.47
 598.82
 603.44
 609.00
 614.40
 619.66
 624.29
 628.56
 633.21
 638.08
 643.18
 648.26
 652.83
 656.75
 659.97
 663.18
 665.96
 668.06
 669.46
 670.81
 671.43
 671.49
 670.94
 668.94
 666.85
 664.57
 662.41
 659.27
 655.84
 652.86
 648.87
 644.88
 640.00
 635.60
 630.94
 626.64
 622.58
 618.92
 615.03
 611.33
 607.79
 603.31
 598.98
 595.98
 591.69
 588.82
 585.54
 583.38
 580.54
 577.09
 574.38
 549.54
 544.49
 522.74
 503.17
 484.75
 468.97
 455.38
 442.74
 431.66
 421.60
 412.54
 404.08
 396.58
 393.82
 387.64
 382.37
 377.54
 373.28
 369.65
 365.99
 363.19
 360.17
 357.75
 355.48
 353.53
 351.88
 349.39
 352.35
 350.72
 368.64
 365.58
 377.32
 392.79
 404.91
 417.92
 429.33
 440.19
 449.98
 458.88
 467.19
 474.27
 481.04
 486.64
 492.18
 496.76
 500.88
 504.49
 506.64
 509.58
 511.62
 513.66
 509.59
 502.13
 490.52
 475.67
 465.80
 453.42
 442.08
 431.77
 422.49
 414.14
 407.03
 400.13
 394.11
 388.70
 383.83
 379.35
 375.21
 371.79
 368.61
 365.65
 363.09
 360.68
 358.71
 357.14
 355.63
 353.56
 352.21
 351.19
 350.27
 349.54
 349.09
 348.98
 348.28
 350.05
 366.05
 381.44
 395.20
 407.98
 419.58
 430.22
 439.90
 449.01
 457.61
 465.45
 473.00
 479.60
 485.94
 491.65
 497.08
 502.48
 507.43
 512.58
 517.73
 523.15
 528.24
 533.61
 539.45
 545.41
 551.87
 558.28
 564.85
 571.57
 578.21
 584.79
 591.11
 597.50
 603.65
 609.58
 615.33
 620.79
 626.01
 630.61
 635.15
 639.14
 643.02
 646.92
 650.13
 652.92
 655.42
 657.78
 659.80
 661.82
 663.44
 664.90
 666.31
 667.38
 668.44
 669.39
 670.26
 671.03
 671.83
 672.44
 672.70
 673.03
 673.03
 673.22
 673.20
 672.68
 671.91
 671.02
 669.72
 668.25
 666.42
 664.48
 662.23
 659.91
 657.32
 654.69
 651.62
 648.56
 645.60
 642.54
 639.49
 636.34
 633.40
 630.26
 627.14
 624.12
 621.11
 618.40
 615.46
 612.71
 609.84
 607.16
 604.74
 602.47
 600.12
 597.81
 595.83
 593.85
 591.76
 589.98
 588.29
 586.46
 584.51
 582.96
 581.26
 579.54
 577.88
 576.20
 574.78
 573.30
 571.77
 570.09
 568.58
 567.02
 565.52
 563.97
 562.47
 561.13
 560.01
 558.81
 557.73
 556.56
 555.50
 554.25
 553.33
 552.39
 551.45
 550.61
 549.65
 548.88
 547.79
 547.12
 546.10
 545.29
 544.56
 543.81
 543.43
 542.78
 542.31
 541.58
 541.02
 540.72
 540.34
 540.21
 539.89
 539.80
 539.52
 539.27
 538.94
 538.55
 538.49
 538.14
 537.93
 537.74
 537.36
 536.93
 536.33
 535.90
 535.51
 535.66
 535.89
 536.40
 537.36
 538.23
 539.50
 540.85
 542.67
 544.90
 547.71
 550.74
 553.77
 556.99
 560.19
 563.77
 568.19
 573.47
 579.33
 585.19
 591.68
 597.81
 604.53
 611.27
 618.35
 625.61
 632.75
 639.78
 645.90
 651.51
 655.56
 658.10
 660.09
 661.68
 663.51
 664.96
 664.67
 663.90
 661.21
 657.29
 652.36
 647.72
 642.15
 636.74
 630.66
 626.80
 622.52
 617.47
 613.32
 608.59
 592.53
 589.18
 585.46
 559.41
 535.67
 514.40
 516.46
 521.02
 525.22
 529.09
 532.48
 534.64
 537.17
 538.45
 540.31
 541.28
 541.45
 527.81
 507.62
 489.66
 473.30
 458.87
 445.98
 434.08
 423.37
 413.34
 405.00
 397.20
 389.88
 383.29
 378.26
 394.04
 388.13
 402.72
 395.85
 389.56
 384.11
 379.10
 374.69
 370.72
 382.35
 377.01
 392.91
 407.12
 420.01
 432.11
 442.30
 451.77
 459.99
 467.89
 474.90
 481.01
 487.11
 492.20
 497.28
 501.05
 504.25
 507.52
 509.97
 512.27
 513.65
 515.08
 497.67
 500.51
 502.55
 500.40
 501.46
 485.71
 471.84
 459.06
 447.55
 437.30
 428.17
 420.05
 412.75
 406.17
 400.05
 394.65
 389.88
 385.60
 381.84
 378.45
 375.61
 372.85
 370.46
 368.52
 366.76
 365.09
 363.98
 362.78
 361.80
 361.02
 360.72
 368.65
 382.88
 395.80
 407.22
 418.09
 428.08
 437.68
 446.71
 455.54
 463.78
 471.91
 480.21
 488.39
 496.65
 505.09
 513.78
 522.60
 531.94
 541.35
 550.51
 559.66
 568.30
 576.87
 584.58
 591.72
 597.95
 603.25
 607.83
 611.45
 614.80
 617.32
 619.69
 621.82
 623.84
 625.95
 627.86
 629.87
 631.69
 633.42
 635.08
 636.57
 638.21
 639.79
 641.11
 642.40
 643.66
 644.99
 646.09
 647.18
 647.97
 648.77
 649.09
 649.38
 649.55
 649.39
 649.25
 648.73
 648.25
 647.43
 646.39
 644.95
 643.25
 641.43
 639.28
 637.26
 634.93
 632.34
 629.60
 626.74
 623.87
 620.78
 617.70
 614.63
 611.57
 608.81
 605.73
 603.16
 600.24
 597.62
 594.96
 592.46
 590.11
 587.80
 585.72
 583.45
 581.51
 537.36
 498.02
 471.02
 447.82
 422.63
 396.37
 370.33
 346.80
 325.52
 306.47
 289.22
 273.70
 259.73
 247.16
 235.84
 225.76
 216.48
 208.23
 200.81
 194.13
 188.12
 182.70
 177.73
 173.26
 230.23
 291.01
 345.71
 394.94
 439.34
 479.31
 515.18
 547.56
 576.61
 602.64
 626.18
 647.46
 666.62
 683.85
 699.17
 712.95
 725.46
 736.81
 746.83
 755.95
 764.25
 771.53
 778.27
 784.25
 789.62
 794.46
 798.81
 802.83
 806.25
 809.32
 812.19
 814.67
 816.91
 819.01
 821.01
 822.81
 824.23
 825.61
 824.95
 823.95
 822.26
 819.63
 816.57
 813.01
 807.21
 801.79
 795.31
 788.38
 780.74
 773.47
 766.32
 710.99
 708.79
 706.41
 703.27
 700.24
 696.92
 652.73
 653.15
 653.14
 621.42
 623.68
 586.31
 571.98
 577.98
 546.39
 554.05
 524.14
 498.33
 483.40
 461.96
 443.06
 440.65
 424.19
 434.67
 419.30
 405.37
 393.24
 382.21
 372.59
 364.23
 356.61
 350.25
 344.42
 339.28
 335.15
 331.34
 328.30
 325.97
 323.98
 322.58
 321.12
 320.11
 324.10
 322.79
 322.01
 338.61
 336.35
 358.11
 354.40
 358.86
 378.28
 373.25
 391.12
 407.21
 421.69
 434.92
 446.93
 457.54
 467.48
 476.13
 484.02
 490.82
 496.44
 501.19
 505.47
 508.73
 512.15
 514.34
 516.90
 518.91
 520.32
 521.89
 522.70
 523.23
 523.61
 506.25
 507.12
 509.21
 510.29
 511.46
 495.11
 480.30
 467.57
 455.52
 444.86
 435.08
 426.27
 418.64
 411.68
 405.51
 399.96
 395.16
 391.25
 387.52
 384.17
 382.35
 379.42
 376.78
 374.20
 372.18
 371.06
 373.55
 387.00
 399.30
 410.57
 420.71
 430.04
 438.64
 446.37
 453.54
 459.98
 466.08
 471.88
 477.39
 482.25
 486.72
 490.95
 495.16
 499.04
 503.14
 507.32
 511.79
 516.71
 521.74
 527.37
 533.43
 539.79
 546.61
 553.55
 560.59
 567.93
 574.94
 582.25
 589.12
 595.91
 602.32
 608.49
 614.14
 619.52
 624.27
 628.64
 632.88
 636.39
 639.55
 642.40
 645.16
 647.64
 649.98
 652.08
 654.17
 655.85
 657.57
 659.01
 660.31
 661.48
 662.53
 663.38
 664.44
 665.10
 665.69
 665.82
 665.94
 665.74
 665.47
 665.12
 664.31
 663.28
 661.85
 660.27
 658.54
 656.29
 653.96
 651.26
 648.33
 645.30
 641.87
 638.68
 635.42
 631.97
 628.48
 625.03
 621.33
 617.99
 614.59
 611.63
 608.47
 605.42
 602.68
 600.11
 597.30
 594.57
 591.91
 589.22
 586.80
 584.32
 582.09
 579.98
 578.18
 576.56
 574.71
 573.34
 571.70
 570.33
 569.10
 567.59
 566.33
 565.30
 564.87
 564.68
 565.21
 566.19
 567.27
 569.05
 570.94
 573.25
 575.72
 578.85
 582.46
 586.12
 590.41
 595.17
 600.65
 606.68
 613.12
 620.00
 627.00
 634.40
 641.66
 648.80
 655.62
 661.26
 665.93
 669.64
 672.87
 675.29
 678.56
 680.80
 682.72
 683.45
 682.70
 680.73
 676.96
 671.96
 665.77
 659.69
 653.92
 648.13
 642.82
 636.14
 629.92
 623.63
 618.67
 614.10
 609.89
 606.70
 602.73
 598.86
 595.47
 592.12
 589.71
 586.64
 585.48
 583.13
 581.82
 580.73
 579.06
 576.95
 574.86
 572.37
 568.44
 566.09
 542.68
 522.41
 503.77
 487.00
 492.10
 477.99
 483.89
 489.10
 493.49
 497.54
 481.99
 486.89
 472.20
 475.78
 462.40
 450.26
 439.53
 429.68
 421.01
 413.11
 406.00
 398.80
 393.12
 388.21
 382.69
 379.12
 374.71
 371.74
 368.96
 366.47
 364.32
 362.39
 360.85
 359.26
 357.84
 356.85
 355.97
 355.37
 354.73
 359.36
 358.52
 373.67
 371.51
 369.55
 381.90
 378.91
 393.02
 405.02
 416.41
 426.87
 435.79
 444.61
 452.25
 459.02
 465.12
 471.11
 476.50
 481.25
 485.82
 489.84
 494.16
 497.64
 501.28
 504.75
 507.47
 510.03
 512.02
 514.42
 515.88
 516.99
 517.49
 517.34
 515.41
 515.27
 515.64
 499.28
 485.65
 472.28
 460.26
 449.93
 440.04
 432.03
 424.03
 416.73
 409.35
 402.72
 397.45
 392.10
 387.29
 383.36
 380.13
 376.91
 374.02
 371.62
 369.56
 367.80
 366.12
 364.81
 363.53
 362.48
 361.63
 361.07
 360.66
 360.19
 359.77
 359.70
 360.83
 368.84
 382.46
 395.01
 406.21
 416.89
 426.70
 435.83
 444.15
 451.73
 459.16
 466.54
 473.29
 480.06
 486.45
 492.71
 498.94
 505.24
 511.92
 518.43
 525.29
 532.16
 539.14
 546.23
 553.50
 561.05
 568.45
 576.00
 583.30
 590.57
 597.62
 604.75
 611.58
 618.32
 624.89
 631.00
 636.90
 642.71
 648.54
 653.78
 658.81
 663.63
 668.16
 672.85
 677.06
 680.96
 684.66
 687.99
 691.09
 694.09
 696.88
 699.29
 701.46
 703.41
 705.17
 706.56
 707.60
 708.64
 709.38
 710.04
 710.53
 710.78
 711.10
 710.79
 710.41
 709.77
 709.09
 708.09
 706.78
 705.10
 703.19
 701.27
 699.04
 696.74
 694.46
 691.82
 688.94
 685.94
 682.75
 679.47
 676.13
 672.71
 669.24
 666.12
 662.71
 659.54
 656.68
 654.01
 652.01
 650.21
 648.89
 647.50
 646.15
 644.74
 643.56
 642.21
 640.79
 639.31
 637.78
 636.60
 635.54
 634.78
 634.21
 633.49
 632.54
 631.48
 630.33
 629.10
 628.59
 628.63
 629.17
 630.15
 631.24
 632.81
 634.23
 635.81
 637.83
 640.25
 643.32
 646.39
 650.25
 654.72
 659.45
 664.51
 669.66
 675.29
 681.36
 688.33
 695.59
 702.83
 709.35
 715.12
 720.50
 725.85
 731.07
 736.36
 741.92
 746.93
 750.54
 752.29
 752.66
 751.99
 750.39
 746.35
 739.52
 730.67
 721.20
 711.58
 703.62
 697.36
 689.22
 656.90
 652.51
 648.36
 611.72
 610.45
 600.21
 599.89
 601.00
 601.20
 601.78
 571.00
 573.60
 575.54
 575.79
 578.01
 549.31
 552.78
 527.10
 503.99
 483.09
 464.38
 476.24
 458.62
 471.16
 454.44
 466.90
 477.61
 478.65
 488.48
 470.03
 480.73
 463.06
 452.55
 438.20
 424.78
 414.30
 403.37
 394.63
 385.77
 378.19
 371.37
 365.14
 385.52
 377.87
 371.88
 365.29
 359.56
 354.61
 350.25
 348.52
 343.67
 342.40
 339.36
 336.83
 335.64
 333.38
 356.14
 351.93
 373.03
 367.23
 386.71
 404.14
 399.12
 415.51
 429.66
 443.29
 454.86
 465.58
 475.62
 484.16
 492.44
 499.70
 506.53
 511.68
 517.31
 521.98
 525.68
 529.71
 532.54
 535.09
 537.18
 539.36
 541.22
 542.60
 543.84
 522.06
 514.05
 494.95
 477.85
 462.27
 448.44
 436.40
 425.06
 414.85
 405.67
 397.60
 390.34
 383.91
 378.21
 372.89
 368.10
 363.69
 359.42
 355.98
 352.68
 349.82
 347.23
 344.41
 342.77
 341.09
 339.38
 338.14
 337.13
 335.72
 335.05
 334.54
 333.99
 333.49
 333.24
 337.32
 340.28
 360.26
 376.83
 393.25
 408.22
 421.80
 434.22
 445.40
 455.66
 465.39
 474.25
 482.73
 490.65
 498.19
 505.37
 512.23
 518.81
 525.33
 532.00
 538.20
 544.78
 551.40
 557.96
 564.46
 571.02
 577.82
 584.53
 591.28
 597.75
 604.18
 610.26
 616.23
 621.91
 627.22
 632.40
 637.36
 641.72
 645.95
 649.75
 653.28
 656.15
 658.84
 661.25
 663.33
 665.19
 666.77
 668.50
 669.75
 671.27
 672.35
 673.21
 674.19
 674.97
 675.87
 676.39
 676.85
 676.96
 677.07
 677.46
 677.51
 677.66
 677.40
 677.26
 677.03
 676.73
 676.46
 676.01
 675.61
 674.95
 674.35
 673.42
 672.58
 671.62
 670.36
 669.22
 667.90
 666.71
 665.24
 663.61
 662.05
 660.45
 658.80
 657.02
 655.42
 653.58
 651.92
 650.33
 648.60
 647.14
 645.72
 644.25
 642.52
 640.57
 638.62
 636.55
 634.80
 632.52
 630.27
 628.04
 625.64
 623.37
 620.94
 618.74
 616.77
 615.29
 614.26
 613.44
 613.09
 612.88
 612.69
 612.32
 611.89
 611.00
 609.80
 608.52
 606.87
 605.08
 603.27
 601.35
 599.31
 597.28
 595.15
 592.94
 590.94
 588.85
 587.06
 585.06
 583.15
 581.54
 579.78
 578.30
 576.77
 575.40
 574.06
 572.75
 571.68
 570.61
 569.85
 568.96
 568.37
 567.83
 567.35
 567.01
 566.21
 565.69
 564.62
 563.76
 562.98
 561.98
 561.19
 560.17
 559.35
 558.62
 558.05
 557.65
 557.28
 556.76
 555.78
 555.30
 554.87
 554.98
 555.69
 556.52
 558.37
 560.23
 562.31
 564.28
 566.45
 568.30
 570.37
 573.34
 576.30
 579.77
 583.29
 587.67
 592.40
 597.66
 603.39
 609.25
 615.33
 621.50
 628.05
 634.84
 641.26
 647.33
 652.20
 656.88
 660.69
 664.32
 667.49
 669.84
 671.66
 672.09
 671.78
 670.00
 667.30
 663.27
 657.95
 653.65
 647.79
 643.01
 637.31
 632.88
 629.99
 624.69
 620.62
 615.56
 611.80
 607.82
 605.14
 602.63
 598.36
 595.33
 568.19
 567.67
 543.01
 521.11
 524.20
 504.18
 508.46
 490.31
 495.58
 478.82
 463.84
 452.06
 439.45
 440.11
 428.90
 419.01
 410.01
 402.00
 404.60
 397.14
 411.13
 403.22
 396.39
 389.96
 384.36
 380.22
 375.30
 382.07
 376.96
 372.87
 369.08
 365.47
 363.23
 360.30
 359.67
 357.01
 354.90
 353.01
 351.21
 349.99
 348.49
 347.74
 346.47
 345.62
 344.76
 343.88
 343.70
 343.13
 344.51
 342.96
 361.07
 358.96
 372.26
 388.34
 400.30
 413.67
 420.61
 432.24
 442.22
 451.10
 459.49
 466.54
 473.69
 479.12
 484.81
 489.52
 493.47
 497.33
 500.19
 503.47
 505.63
 508.16
 509.95
 511.55
 513.20
 497.78
 501.00
 488.70
 492.63
 479.17
 472.15
 477.03
 463.93
 451.74
 441.06
 431.46
 422.01
 413.91
 407.12
 400.51
 394.56
 389.10
 384.29
 379.86
 375.98
 372.38
 369.34
 366.71
 364.34
 362.30
 360.37
 358.33
 356.90
 355.61
 354.55
 353.49
 352.65
 351.98
 350.98
 350.58
 350.53
 351.07
 350.87
 361.48
 376.73
 390.66
 403.69
 415.42
 426.38
 436.04
 445.14
 453.52
 461.17
 468.16
 474.74
 480.97
 486.77
 492.49
 497.94
 503.25
 508.72
 514.15
 519.94
 525.94
 531.95
 538.25
 544.53
 550.98
 557.28
 563.65
 570.08
 576.38
 582.54
 588.38
 594.35
 599.71
 605.04
 610.24
 615.01
 619.71
 624.14
 628.63
 632.46
 636.32
 639.79
 643.41
 646.57
 649.21
 651.89
 654.50
 656.95
 659.25
 661.33
 663.50
 665.15
 666.93
 668.64
 670.07
 671.57
 672.81
 673.83
 674.75
 675.67
 676.50
 677.25
 677.83
 678.25
 678.82
 679.24
 679.52
 679.46
 679.42
 679.28
 679.25
 679.12
 678.61
 678.35
 677.91
 677.42
 676.78
 676.00
 675.40
 674.56
 673.71
 672.64
 671.47
 670.12
 668.71
 667.44
 665.70
 664.03
 662.12
 660.41
 658.37
 656.43
 654.39
 651.95
 649.76
 647.18
 644.66
 642.20
 639.68
 637.21
 634.39
 631.75
 629.17
 626.46
 623.71
 620.94
 618.15
 615.13
 612.32
 609.29
 606.36
 603.72
 600.85
 598.26
 595.54
 593.08
 590.68
 588.31
 586.28
 584.05
 582.34
 580.41
 578.57
 576.81
 575.03
 573.23
 571.61
 570.04
 568.44
 566.90
 565.11
 563.50
 561.95
 560.05
 558.55
 557.09
 555.88
 554.79
 553.71
 552.94
 551.95
 551.25
 550.53
 550.28
 549.85
 549.86
 550.18
 550.16
 550.34
 549.91
 549.62
 549.36
 549.12
 549.51
 549.66
 550.49
 551.34
 552.91
 554.02
 555.12
 556.80
 558.52
 560.87
 563.58
 567.03
 571.32
 576.39
 581.85
 587.07
 592.16
 596.84
 602.66
 609.29
 616.56
 624.51
 631.96
 639.16
 645.15
 650.63
 655.57
 660.51
 665.06
 669.15
 673.14
 676.12
 678.31
 679.28
 678.35
 676.72
 672.45
 668.80
 664.82
 660.94
 656.74
 652.07
 646.36
 639.73
 634.55
 628.20
 623.48
 617.13
 587.02
 585.32
 581.58
 579.43
 576.28
 574.06
 551.85
 529.36
 530.93
 510.84
 514.75
 496.38
 500.64
 483.97
 468.78
 475.60
 461.44
 469.50
 455.35
 462.11
 449.50
 437.45
 447.31
 435.87
 439.79
 429.21
 419.89
 411.60
 403.84
 398.76
 392.28
 388.95
 383.76
 379.08
 374.87
 370.89
 368.10
 364.89
 362.30
 359.77
 357.69
 355.92
 354.13
 355.72
 353.35
 353.61
 352.15
 351.13
 350.32
 348.89
 366.10
 363.59
 379.83
 376.25
 382.62
 392.16
 387.54
 401.19
 395.57
 408.31
 402.08
 413.97
 418.98
 411.18
 422.46
 414.92
 425.82
 418.44
 428.90
 438.31
 446.38
 454.14
 443.53
 451.37
 440.94
 431.74
 423.27
 415.54
 408.09
 401.88
 396.19
 390.27
 385.84
 381.66
 377.79
 374.41
 371.37
 368.74
 366.26
 363.94
 361.64
 359.68
 357.71
 356.04
 354.64
 353.27
 352.14
 351.13
 350.32
 349.59
 349.03
 348.52
 348.17
 347.75
 347.58
 347.62
 347.56
 347.50
 347.85
 348.27
 349.44
 352.20
 367.28
 382.35
 396.01
 408.41
 419.87
 430.28
 440.06
 449.05
 457.45
 465.20
 472.48
 479.53
 486.38
 493.14
 499.73
 506.55
 513.10
 519.69
 526.22
 532.70
 539.33
 545.90
 552.61
 559.15
 565.93
 572.74
 579.46
 586.42
 593.08
 599.97
 606.37
 612.53
 618.48
 624.23
 629.61
 634.45
 639.10
 643.09
 646.98
 650.69
 653.92
 657.13
 659.91
 662.62
 665.06
 667.25
 669.23
 670.91
 673.01
 674.21
 675.49
 676.44
 677.40
 678.46
 679.11
 680.00
 680.50
 680.95
 681.16
 681.44
 681.50
 681.25
 681.02
 680.42
 679.68
 679.01
 677.91
 676.72
 675.45
 674.00
 672.00
 669.90
 667.51
 664.86
 662.27
 659.45
 656.80
 654.12
 651.41
 648.57
 646.01
 643.51
 640.96
 638.66
 636.30
 634.17
 631.75
 629.58
 627.42
 624.88
 622.79
 620.51
 618.26
 616.03
 614.03
 611.73
 609.45
 607.61
 605.45
 603.20
 601.18
 599.26
 597.34
 595.20
 593.58
 591.73
 589.85
 588.07
 586.36
 584.72
 583.15
 581.84
 580.15
 578.44
 577.09
 575.68
 574.32
 572.88
 571.60
 570.24
 569.31
 568.28
 567.15
 566.04
 564.73
 563.66
 562.49
 561.55
 560.59
 559.53
 558.88
 557.89
 557.10
 556.19
 555.47
 554.52
 553.87
 553.19
 552.37
 551.73
 550.86
 550.17
 549.65
 548.99
 548.69
 548.22
 547.80
 547.32
 547.09
 547.08
 546.77
 546.79
 546.81
 546.93
 547.04
 547.14
 547.32
 547.29
 547.46
 547.31
 547.28
 547.45
 547.51
 547.76
 547.88
 548.69
 549.32
 550.39
 551.45
 552.81
 554.73
 556.75
 559.48
 562.73
 566.66
 570.39
 573.95
 577.06
 579.95
 583.76
 588.18
 593.16
 598.25
 603.22
 607.80
 612.02
 616.82
 621.94
 627.64
 632.98
 637.88
 641.69
 644.62
 646.96
 648.56
 650.61
 652.85
 655.66
 658.40
 659.86
 660.07
 658.66
 657.90
 656.91
 655.62
 654.26
 652.33
 650.10
 646.79
 642.61
 637.05
 631.94
 627.15
 622.73
 618.66
 612.99
 610.09
 606.29
 601.66
 597.59
 593.73
 591.26
 588.63
 586.57
 583.21
 579.49
 576.44
 551.70
 551.43
 528.89
 530.90
 510.61
 492.15
 475.93
 461.14
 448.62
 436.56
 425.91
 415.82
 407.23
 399.71
 392.84
 397.36
 390.92
 385.33
 380.20
 375.68
 372.51
 368.86
 385.97
 380.17
 388.36
 384.22
 392.20
 406.68
 418.71
 430.54
 440.29
 449.76
 458.18
 465.96
 473.27
 479.24
 485.42
 489.87
 494.89
 498.70
 501.83
 505.05
 507.14
 509.83
 511.14
 513.13
 514.32
 507.49
 494.64
 479.27
 467.65
 455.48
 444.43
 434.19
 425.07
 416.66
 409.10
 402.29
 396.36
 390.52
 385.77
 381.29
 377.26
 373.54
 370.18
 367.27
 364.14
 361.73
 359.85
 357.97
 356.57
 355.41
 354.17
 352.65
 351.69
 350.82
 349.94
 349.44
 349.00
 348.60
 348.44
 348.20
 347.98
 347.98
 347.98
 347.98
 348.08
 348.18
 348.06
 348.25
 348.43
 348.68
 351.32
 362.78
 378.11
 392.40
 405.16
 417.14
 427.93
 437.93
 447.14
 456.03
 464.32
 472.29
 480.16
 487.85
 495.56
 503.21
 510.78
 518.61
 526.35
 534.41
 542.37
 550.63
 558.77
 566.69
 574.72
 582.15
 589.44
 596.39
 603.15
 609.74
 615.76
 621.39
 626.65
 631.68
 636.32
 640.48
 644.34
 647.80
 651.02
 653.72
 656.35
 658.61
 660.85
 662.77
 664.39
 665.95
 667.16
 668.64
 669.68
 670.91
 671.72
 672.45
 673.20
 673.68
 674.31
 674.18
 674.06
 674.26
 674.23
 674.11
 673.60
 673.14
 672.22
 671.20
 670.18
 669.06
 668.26
 666.73
 665.36
 663.92
 662.53
 661.18
 659.66
 658.29
 656.46
 654.72
 652.75
 650.67
 648.60
 646.34
 644.11
 641.80
 639.42
 636.68
 634.21
 631.69
 629.32
 627.09
 624.68
 622.31
 619.78
 617.50
 615.15
 612.64
 610.37
 608.04
 605.73
 603.46
 601.41
 599.17
 596.95
 595.06
 592.95
 590.76
 588.88
 587.09
 585.18
 583.17
 581.25
 579.42
 577.88
 576.19
 574.67
 573.11
 571.40
 569.86
 568.27
 567.04
 565.64
 564.28
 563.25
 562.02
 560.82
 559.54
 558.58
 557.43
 556.58
 555.93
 555.13
 554.62
 554.36
 554.32
 554.19
 554.37
 554.93
 555.44
 556.30
 556.67
 557.20
 557.48
 557.63
 557.57
 557.41
 557.27
 556.84
 556.76
 556.58
 556.32
 556.09
 555.48
 555.23
 554.81
 554.53
 554.58
 554.32
 554.19
 553.77
 553.49
 553.24
 553.02
 552.82
 552.43
 552.29
 551.86
 551.78
 551.70
 551.73
 551.86
 552.17
 553.05
 553.65
 554.48
 555.33
 556.30
 557.37
 558.43
 559.89
 561.30
 562.87
 564.28
 565.96
 567.96
 570.46
 574.12
 578.31
 583.08
 587.87
 592.88
 597.89
 602.40
 606.36
 610.13
 614.71
 619.54
 624.79
 629.91
 634.42
 638.38
 640.94
 642.95
 644.55
 646.70
 648.93
 650.53
 652.18
 653.16
 653.35
 651.11
 648.50
 646.15
 643.33
 641.10
 637.99
 635.69
 632.52
 630.17
 626.95
 621.66
 616.39
 610.65
 606.49
 601.44
 596.90
 593.61
 589.65
 587.18
 582.36
 578.93
 553.63
 553.27
 531.24
 510.72
 514.05
 495.44
 500.90
 484.01
 489.81
 489.83
 474.64
 481.58
 466.52
 453.37
 441.23
 430.31
 420.88
 411.99
 424.09
 414.98
 426.78
 418.21
 421.59
 423.83
 415.24
 426.72
 417.45
 428.80
 420.02
 412.42
 405.38
 398.64
 393.08
 387.57
 382.81
 378.33
 374.10
 370.59
 367.33
 364.50
 361.85
 359.36
 357.13
 355.11
 353.50
 351.75
 351.28
 350.75
 350.17
 349.96
 349.96
 356.86
 356.28
 356.25
 355.53
 354.47
 354.03
 354.02
 354.12
 353.71
 354.34
 354.50
 353.65
 353.49
 353.04
 352.94
 352.94
 353.35
 353.31
 353.18
 353.06
 352.86
 352.87
 352.58
 352.83
 352.74
 352.97
 352.77
 352.79
 353.02
 352.91
 353.22
 353.20
 353.28
 352.75
 352.68
 352.81
 352.53
 352.68
 352.61
 353.05
 353.34
 353.41
 366.17
 365.05
 364.35
 363.51
 362.96
 362.06
 368.96
 383.06
 381.46
 394.11
 390.40
 386.66
 383.29
 380.76
 378.39
 376.25
 374.82
 373.34
 372.11
 371.40
 370.26
 369.43
 368.39
 367.75
 367.07
 365.77
 365.59
 364.63
 364.17
 363.75
 363.58
 363.52
 363.07
 363.06
 362.25
 373.83
 386.85
 399.86
 412.27
 424.55
 436.29
 447.66
 458.80
 469.62
 480.26
 490.53
 500.28
 509.45
 517.40
 524.26
 529.94
 535.54
 540.79
 546.01
 551.81
 558.03
 564.03
 568.12
 570.11
 568.90
 545.91
 524.22
 504.10
 484.89
 467.30
 454.37
 443.33
 445.40
 452.76
 441.98
 430.78
 420.91
 412.32
 405.48
 400.24
 395.71
 392.04
 387.94
 384.94
 382.05
 379.54
 377.29
 375.16
 373.34
 371.01
 369.51
 367.76
 366.48
 365.43
 364.39
 364.15
 363.74
 363.56
 363.71
